Time [Mins],Global CMP22 (vent/cor) [W/m^2],Direct sNIP [W/m^2],Azimuth Angle [degrees],Tower Dry Bulb Temp [deg C],Tower Wet Bulb Temp [deg C],Tower Dew Point Temp [deg C],Tower RH [%],Total Cloud Cover [%],Peak Wind Speed @ 6ft [m/s],Avg Wind Direction @ 6ft [deg from N],Station Pressure [mBar],Precipitation (Accumulated) [mm],Snow Depth [cm],Moisture,Albedo (CMP11)
0,117.711,-0.228579,98.96576,-0.025,-1.699,-3.899,72.33,94,1.45,133.5,823.202,0.0,1.781,0.0,0.3518
1,119.446,-0.308086,99.13475,-0.06,-1.801,-4.101,71.3,95,0.95,133.6,823.2080000000002,0.0,1.734,0.0,0.35100000000000003
2,120.526,-0.407469,99.30403,-0.098,-1.7480000000000002,-4.048,71.85,95,0.7,149.6,823.21,0.0,1.7380000000000002,0.0,0.3507
3,121.068,-0.39753,99.47359,-0.106,-1.771,-3.971,72.37,95,0.7,130.6,823.209,0.0,1.805,0.0,0.3501
4,121.531,-0.293177,99.64345,-0.083,-1.6740000000000002,-3.874,72.83,95,0.0,0.0,823.209,0.0,1.795,0.0,0.3499
5,122.222,-0.10932,99.81361,-0.067,-1.629,-3.729,73.63,95,1.2,122.9,823.203,0.0,1.796,0.0,0.3496
6,123.085,0.014907,99.98407,-0.045,-1.6269999999999998,-3.727,73.51,95,1.2,128.6,823.206,0.0,1.791,0.0,0.3495
7,124.152,0.129196,100.15484,-0.016,-1.6880000000000002,-3.788,72.96,95,0.7,114.0,823.204,0.0,1.784,0.0,0.3489
8,125.249,0.099382,100.32592,-0.001,-1.633,-3.833,72.59,95,0.95,126.9,823.205,0.0,1.775,0.0,0.3484
9,126.144,0.149073,100.49732,0.017,-1.6030000000000002,-3.703,73.3,95,0.95,116.3,823.205,0.0,1.776,0.0,0.3484
10,126.736,0.258393,100.66904,0.026,-1.694,-4.0939999999999985,70.86,95,1.7,134.7,823.206,0.0,1.709,0.0,0.3479
11,127.004,0.208702,100.84109,0.006999999999999999,-1.722,-4.022,71.39,95,1.2,110.3,823.205,0.0,1.733,0.0,0.3472
12,127.306,0.099382,101.01346,-0.015,-1.732,-4.132,70.85,96,0.95,95.4,823.205,0.0,1.733,0.0,0.3472
13,128.02,0.024846,101.18617,-0.003,-1.766,-4.166,70.58,95,1.2,125.2,823.204,0.0,1.746,0.0,0.3472
14,129.363,-0.079506,101.35922,-0.005,-1.714,-4.114,70.9,96,0.0,0.0,823.195,0.0,1.771,0.0,0.3474
15,131.345,-0.099382,101.53262,-0.002,-1.745,-4.145,70.7,95,0.0,0.0,823.177,0.0,1.781,0.0,0.3475
16,133.64600000000002,-0.039753,101.70636,0.014,-1.767,-4.167,70.48,96,0.0,0.0,823.169,0.0,1.712,0.0,0.3476
17,135.747,0.079506,101.88046,0.027000000000000003,-1.726,-4.126,70.66,96,0.0,0.0,823.16,0.0,1.743,0.0,0.3473
18,137.234,0.17888800000000002,102.05492,0.055,-1.716,-4.216,69.98,96,0.0,0.0,823.1619999999998,0.0,1.767,0.0,0.3468
19,138.023,0.228579,102.22974,0.08199999999999999,-1.714,-4.114,70.45,96,0.95,150.7,823.1610000000002,0.0,1.765,0.0,0.3466
20,138.338,0.28323899999999996,102.40494,0.081,-1.764,-4.164,70.16,95,0.7,157.5,823.166,0.0,1.771,0.0,0.3464
21,138.625,0.183857,102.5805,0.08,-1.7180000000000002,-4.118,70.44,96,0.0,0.0,823.165,0.0,1.766,0.0,0.3465
22,139.441,0.248456,102.75645,0.101,-1.63,-4.03,70.86,96,0.0,0.0,823.1669999999998,0.0,1.766,0.0,0.3469
23,141.15200000000004,0.298146,102.93278,0.127,-1.597,-3.997,70.92,95,1.2,122.9,823.166,0.0,1.765,0.0,0.3466
24,143.735,0.38262,103.10949,0.136,-1.669,-4.169,69.85,96,1.2,130.0,823.17,0.0,1.773,0.0,0.3458
25,146.96200000000005,0.496911,103.2866,0.133,-1.72,-4.22,69.56,96,1.45,130.1,823.1619999999998,0.0,1.753,0.0,0.3453
26,150.119,0.491941,103.46411,0.115,-1.76,-4.16,70.01,96,0.0,0.0,823.16,0.0,1.758,0.0,0.345
27,152.619,0.4621270000000001,103.64203,0.131,-1.7180000000000002,-4.218,69.58,96,0.0,0.0,823.1389999999999,0.0,1.744,0.0,0.3445
28,154.123,0.6012609999999999,103.82035,0.18,-1.7,-4.3,68.85,96,0.0,0.0,823.128,0.0,1.737,0.0,0.3436
29,154.86,0.7751819999999999,103.99909,0.251,-1.699,-4.199,69.09,96,0.0,0.0,823.127,0.0,1.721,0.0,0.3432
30,155.464,1.00376,104.17824,0.355,-1.5659999999999998,-4.066,69.35,96,0.95,100.6,823.1260000000002,0.0,1.711,0.0,0.3425
31,156.333,1.11805,104.35782,0.388,-1.574,-4.274,67.97,96,1.2,118.8,823.125,0.0,1.6880000000000002,0.0,0.3416
32,157.8,1.09321,104.53783,0.35,-1.548,-4.048,69.48,96,1.2,133.9,823.122,0.0,1.727,0.0,0.3416
33,159.85299999999995,0.8745649999999999,104.71828,0.33299999999999996,-1.493,-3.893,70.49,96,0.95,138.9,823.123,0.0,1.751,0.0,0.3419
34,162.613,0.576417,104.89916,0.308,-1.518,-4.018,69.87,96,0.7,136.5,823.123,0.0,1.7519999999999998,0.0,0.3419
35,166.15599999999995,0.531697,105.08049,0.309,-1.505,-3.905,70.54,96,1.95,127.3,823.117,0.0,1.7619999999999998,0.0,0.3418
36,170.416,0.442254,105.26227,0.307,-1.617,-4.117,69.29,96,1.95,129.3,823.1160000000001,0.0,1.7719999999999998,0.0,0.3407
37,175.02599999999995,0.322995,105.44451,0.267,-1.6780000000000002,-4.2780000000000005,68.55,96,1.45,128.6,823.115,0.0,1.7519999999999998,0.0,0.34
38,179.355,0.337903,105.62721,0.227,-1.664,-4.2639999999999985,68.83,96,0.95,128.9,823.1139999999998,0.0,1.731,0.0,0.3397
39,182.896,0.41244,105.81037,0.217,-1.703,-4.203,69.24,96,0.95,129.0,823.0989999999998,0.0,1.779,0.0,0.3393
40,185.448,0.591329,105.99401,0.227,-1.696,-4.1960000000000015,69.23,96,0.95,131.7,823.086,0.0,1.746,0.0,0.3389
41,187.392,0.720528,106.17813,0.245,-1.69,-4.19,69.17,96,0.0,0.0,823.0830000000002,0.0,1.7519999999999998,0.0,0.3386
42,189.34,0.939169,106.36273,0.284,-1.661,-4.261,68.56,96,0.0,0.0,823.0830000000002,0.0,1.7380000000000002,0.0,0.3381
43,191.423,1.19259,106.54782,0.32,-1.662,-4.362,67.8,96,0.0,0.0,823.082,0.0,1.734,0.0,0.3378
44,193.533,1.35658,106.7334,0.388,-1.6230000000000002,-4.323,67.69,96,0.0,0.0,823.081,0.0,1.7280000000000002,0.0,0.3375
45,195.91099999999997,1.51559,106.91949,0.453,-1.645,-4.545,66.11,96,0.0,0.0,823.08,0.0,1.703,0.0,0.3376
46,198.91,1.61001,107.10608,0.512,-1.639,-4.539,65.86,97,0.0,0.0,823.078,0.0,1.694,0.0,0.3372
47,202.719,1.59509,107.29318,0.5920000000000001,-1.506,-4.306,66.79,96,0.0,0.0,823.08,0.0,1.735,0.0,0.3367
48,207.08,1.62988,107.4808,0.679,-1.4240000000000002,-4.324,66.27,96,0.0,0.0,823.079,0.0,1.719,0.0,0.3362
49,211.538,1.6746,107.66894,0.7290000000000001,-1.355,-4.155,66.99,97,0.0,0.0,823.073,0.0,1.7480000000000002,0.0,0.3358
50,215.594,1.54043,107.85761,0.738,-1.3630000000000002,-4.063,67.47,96,1.7,126.4,823.063,0.0,1.71,0.0,0.3352
51,219.28,1.29695,108.04681,0.6990000000000001,-1.429,-4.229,66.71,96,0.95,124.4,823.061,0.0,1.69,0.0,0.3349
52,222.792,1.15284,108.23656,0.662,-1.452,-4.252,66.76,97,0.0,0.0,823.051,0.0,1.6980000000000002,0.0,0.3351
53,226.735,1.13296,108.42685,0.677,-1.453,-4.253,66.68,97,1.45,116.2,823.043,0.0,1.76,0.0,0.3348
54,231.392,1.23234,108.6177,0.6809999999999999,-1.4409999999999998,-4.2410000000000005,66.73,97,1.7,130.1,823.04,0.0,1.744,0.0,0.3342
55,236.248,1.2124700000000002,108.8091,0.6459999999999999,-1.43,-4.23,66.96,96,0.7,148.7,823.041,0.0,1.692,0.0,0.33399999999999996
56,240.41099999999997,1.10315,109.00107,0.608,-1.598,-4.498,65.63,96,0.0,0.0,823.041,0.0,1.736,0.0,0.3336
57,243.272,1.05345,109.1936,0.5670000000000001,-1.509,-4.409,66.33,96,0.0,0.0,823.04,0.0,1.781,0.0,0.3329
58,244.942,1.19756,109.38672,0.5670000000000001,-1.557,-4.357,66.62,97,0.0,0.0,823.039,0.0,1.766,0.0,0.3327
59,246.364,1.31682,109.58042,0.6559999999999999,-1.473,-4.273,66.67,97,0.0,0.0,823.038,0.0,1.735,0.0,0.3322
60,248.718,1.6298700000000002,109.7747,0.7809999999999999,-1.32,-4.22,66.37,97,0.45,68.68,823.034,0.0,1.68,0.0,0.3317
61,252.923,2.09697,109.96958,0.919,-1.149,-3.949,67.24,96,0.7,81.0,823.033,0.0,1.7380000000000002,0.0,0.3311
62,258.578,2.2957400000000003,110.16506,1.048,-1.223,-4.123,65.64,97,0.95,101.8,823.0310000000002,0.0,1.6969999999999998,0.0,0.3307
63,264.435,2.25599,110.36115,1.196,-1.193,-4.293,64.01,97,1.2,77.07,823.0319999999998,0.0,1.622,0.0,0.3296
64,269.394,2.26593,110.55785,1.335,-1.092,-4.292,63.38,97,1.7,107.8,823.028,0.0,1.594,0.0,0.3294
65,273.01599999999996,2.13674,110.75517,1.4280000000000002,-0.967,-4.067,64.17,97,1.45,101.9,823.0160000000002,0.0,1.643,0.0,0.3284
66,276.046,1.95288,110.95312,1.409,-0.996,-4.096,64.1,97,0.95,89.2,823.0189999999999,0.0,1.602,0.0,0.32799999999999996
67,279.507,1.91312,111.1517,1.439,-1.05,-4.25,63.13,97,0.45,84.1,823.0219999999998,0.0,1.605,0.0,0.32799999999999996
68,283.654,2.0274099999999997,111.35092,1.565,-0.968,-4.168,63.0,98,0.0,0.0,823.018,0.0,1.595,0.0,0.3283
69,289.4120000000001,2.1118900000000003,111.55079,1.711,-0.759,-3.859,64.0,98,1.2,98.1,823.005,0.0,1.686,0.0,0.3284
70,299.725,2.95664,111.7513,1.777,-0.639,-3.739,64.35,97,1.2,104.1,822.9939999999998,0.0,1.595,0.0,0.32899999999999996
71,314.345,4.41756,111.95248,1.817,-0.722,-3.922,63.18,98,2.2,99.5,822.995,0.0,1.611,0.0,0.32799999999999996
72,326.483,5.8884099999999995,112.15432,1.821,-0.797,-4.197,61.7,98,1.7,91.9,822.992,0.0,1.585,0.0,0.3274
73,335.36300000000006,5.57038,112.35683,1.857,-0.672,-3.972,62.73,98,2.2,67.72,822.9789999999998,0.0,1.592,0.0,0.3272
74,345.161,7.22012,112.56002,1.831,-0.7340000000000001,-4.1339999999999995,61.99,99,1.2,81.7,822.9810000000001,0.0,1.5730000000000002,0.0,0.32799999999999996
75,355.996,9.60032,112.7639,1.814,-0.6459999999999999,-3.646,64.69,98,1.7,79.57,822.975,0.0,1.622,0.0,0.327
76,363.01,10.3109,112.96846,1.912,-0.541,-3.741,63.72,99,1.45,65.46,822.954,0.0,1.604,0.0,0.3276
77,372.964,11.3147,113.17373,1.965,-0.606,-4.006,62.07,98,2.2,113.4,822.948,0.0,1.601,0.0,0.3294
78,386.709,18.7833,113.3797,1.808,-0.929,-4.4289999999999985,60.55,99,1.2,119.5,822.943,0.0,1.523,0.0,0.3353
79,398.441,27.4493,113.58638,1.727,-0.865,-4.165,62.29,98,0.95,69.72,822.923,0.0,1.537,0.0,0.3299
80,405.424,38.3813,113.79379,1.76,-0.872,-4.272,61.58,98,0.95,46.68,822.9169999999998,0.0,1.539,0.0,0.3282
81,404.0019999999999,28.9102,114.00191,1.7990000000000002,-0.799,-4.199,61.79,97,0.0,0.0,822.916,0.0,1.515,0.0,0.3234
82,406.77,26.0035,114.21077,1.901,-0.705,-4.105,61.83,96,0.0,0.0,822.915,0.0,1.546,0.0,0.3285
83,421.338,39.43,114.42037,2.046,-0.564,-3.864,62.46,97,1.45,94.1,822.909,0.0,1.638,0.0,0.3251
84,433.422,42.2226,114.63072,2.147,-0.594,-3.994,61.33,95,0.95,107.4,822.8969999999998,0.0,1.533,0.0,0.3346
85,462.815,83.0839,114.84182,2.234,-0.539,-4.1389999999999985,60.2,95,1.2,107.6,822.9,0.0,1.5530000000000002,0.0,0.3503
86,467.805,71.5852,115.05368,2.403,-0.4370000000000001,-4.137,59.49,92,0.95,93.5,822.8789999999998,0.0,1.518,0.0,0.3191
87,461.388,78.7706,115.26631,2.498,-0.449,-4.349,58.03,91,1.2,114.7,822.875,0.0,1.496,0.0,0.3257
88,455.505,94.2247,115.47972,2.501,-0.37,-3.97,59.92,88,1.45,110.8,822.8660000000001,0.0,1.541,0.0,0.3291
89,464.131,113.942,115.69391,2.526,-0.238,-3.738,61.0,82,1.45,83.8,822.87,0.0,1.515,0.0,0.3258
90,500.939,198.329,115.90888,2.71,-0.227,-4.027,58.75,81,0.7,92.2,822.867,0.0,1.511,0.0,0.3466
91,569.383,296.471,116.12466,2.97,-0.084,-3.884,58.38,77,1.45,103.5,822.8660000000001,0.0,1.385,0.0,0.3117
92,505.486,220.507,116.34123,3.175,0.092,-3.608,58.9,78,1.95,77.5,822.862,0.0,1.412,0.0,0.3097
93,441.217,128.463,116.55862,3.175,-0.112,-4.312,55.48,75,2.2,39.48,822.8589999999998,0.0,1.246,0.0,0.32
94,405.807,105.541,116.77683,2.9419999999999997,-0.253,-4.253,56.69,72,1.45,70.42,822.862,0.0,1.351,0.0,0.3231
95,398.125,116.13,116.99586,2.911,-0.355,-4.555,55.37,70,1.2,59.96,822.8610000000001,0.0,1.3030000000000002,0.0,0.32799999999999996
96,421.088,168.525,117.21573,2.8960000000000004,-0.473,-4.773,54.41,67,0.95,68.29,822.862,0.0,1.287,0.0,0.3213
97,473.217,278.035,117.43644,2.944,-0.28,-4.38,56.07,61,0.0,0.0,822.8560000000001,0.0,1.3259999999999998,0.0,0.3162
98,462.819,258.973,117.65799999999999,3.1319999999999997,0.07200000000000001,-3.728,58.48,54,1.45,108.8,822.8480000000002,0.0,1.423,0.0,0.3142
99,511.526,415.242,117.88041,3.23,0.287,-3.313,60.15,54,1.45,96.2,822.831,0.0,1.44,0.0,0.3235
100,584.1669999999998,541.79,118.10369,3.286,-0.042,-4.1419999999999995,55.85,42,1.95,94.0,822.822,0.0,1.371,0.0,0.3655
101,640.529,632.67,118.32783,3.344,0.022,-4.178,55.45,44,1.7,96.0,822.822,0.0,1.317,0.0,0.3197
102,584.668,602.448,118.55286,3.438,-0.024,-4.4239999999999995,53.94,39,1.45,94.8,822.821,0.0,1.26,0.0,0.3241
103,586.1030000000002,650.565,118.77877,3.5269999999999997,0.166,-4.034,55.41,37,1.2,100.1,822.809,0.0,1.315,0.0,0.311
104,544.744,602.0740000000002,119.00558,3.5610000000000004,0.152,-4.048,55.21,35,1.95,116.1,822.809,0.0,1.291,0.0,0.3093
105,561.679,700.295,119.23329,3.268,-0.005,-4.205,55.62,30,1.95,128.4,822.804,0.0,1.335,0.0,0.3222
106,654.927,885.868,119.4619,2.9339999999999997,-0.115,-4.015,57.88,26,1.95,96.4,822.811,0.0,1.419,0.0,0.3053
107,654.915,893.812,119.69144,2.897,-0.173,-3.973,58.24,24,0.0,0.0,822.827,0.0,1.3969999999999998,0.0,0.2926
108,637.096,880.68,119.9219,3.0189999999999997,0.085,-3.615,59.52,23,1.45,115.2,822.821,0.0,1.56,0.0,0.3066
109,644.0269999999998,888.924,120.15328999999998,3.174,0.096,-3.604,58.92,22,1.45,114.7,822.812,0.0,1.604,0.0,0.3125
110,659.313,912.014,120.38562,3.266,0.115,-3.885,57.16,22,0.95,99.3,822.819,0.0,1.486,0.0,0.3054
111,657.3960000000002,911.379,120.61891,3.344,0.152,-3.748,57.51,22,0.45,156.6,822.818,0.0,1.272,0.0,0.304
112,654.293,910.361,120.85314,3.426,0.217,-3.783,57.01,22,0.95,150.8,822.807,0.0,1.394,0.0,0.3046
113,660.927,923.909,121.08834,3.484,0.19,-4.01,55.69,21,1.2,126.8,822.795,0.0,1.395,0.0,0.3027
114,667.706,933.848,121.32452,3.643,0.27899999999999997,-3.821,55.96,19,1.2,138.3,822.803,0.0,1.489,0.0,0.3006
115,668.8689999999998,933.559,121.56167,3.848,0.562,-3.338,57.46,18,0.95,128.2,822.802,0.0,1.4509999999999998,0.0,0.2983
116,669.615,934.596,121.79981,3.994,0.597,-3.603,55.61,17,0.95,171.9,822.802,0.0,1.26,0.0,0.2975
117,674.377,938.58,122.03895,3.814,0.208,-4.3919999999999995,52.67,17,1.2,203.7,822.805,0.0,1.157,0.0,0.2951
118,677.115,938.923,122.27909,3.612,0.111,-4.3889999999999985,53.44,18,0.0,0.0,822.801,0.0,1.244,0.0,0.2936
119,680.9989999999998,940.919,122.52025,3.532,0.034,-4.3660000000000005,53.85,18,0.0,0.0,822.795,0.0,1.218,0.0,0.2921
120,684.035,941.526,122.76242,3.53,-0.068,-4.768,52.04,18,0.95,259.6,822.7919999999998,0.0,1.228,0.0,0.2895
121,685.873,941.575,123.00562,3.427,-0.16,-4.86,52.01,18,0.7,231.8,822.795,0.0,1.232,0.0,0.2873
122,685.2689999999999,937.374,123.24986,3.366,-0.232,-5.032,51.47,18,0.0,0.0,822.793,0.0,1.347,0.0,0.2866
123,685.0219999999998,931.29,123.49514,3.33,-0.322,-5.222,50.77,17,1.2,245.2,822.79,0.0,1.275,0.0,0.2849
124,690.074,932.541,123.74147,3.262,-0.381,-5.2810000000000015,50.76,18,1.2,246.4,822.788,0.0,1.3769999999999998,0.0,0.2842
125,696.817,937.921,123.98887,3.2689999999999997,-0.108,-4.508,54.2,18,0.0,0.0,822.779,0.0,1.405,0.0,0.2835
126,702.418,941.964,124.23733,3.565,0.154,-4.146,54.74,20,1.2,84.9,822.757,0.0,1.4469999999999998,0.0,0.2812
127,707.2760000000002,945.91,124.48687,3.868,0.229,-4.471,52.12,20,1.95,118.1,822.743,0.0,1.345,0.0,0.2791
128,709.7589999999999,946.751,124.73749,4.0089999999999995,0.408,-3.992,53.75,22,1.95,123.2,822.745,0.0,1.579,0.0,0.27699999999999997
129,712.943,947.911,124.9892,3.993,0.387,-4.213,52.81,20,2.7,115.8,822.737,0.0,1.492,0.0,0.2752
130,715.7660000000002,947.465,125.24202,3.737,0.059,-4.541,52.29,20,1.95,113.5,822.763,0.0,1.431,0.0,0.2732
131,718.168,945.349,125.49594,3.596,-0.045,-4.845,51.46,25,1.95,119.2,822.755,0.0,1.565,0.0,0.2718
132,723.138,948.294,125.75098,3.458,-0.116,-4.716,52.54,22,2.7,109.3,822.755,0.0,1.6030000000000002,0.0,0.2706
133,727.873,950.26,126.00714,3.4419999999999997,-0.265,-5.065,51.05,22,1.45,111.1,822.752,0.0,1.531,0.0,0.2691
134,731.475,952.228,126.26444,3.53,-0.293,-5.393,49.33,18,0.45,295.7,822.745,0.0,1.435,0.0,0.2686
135,736.837,955.191,126.52288,3.562,-0.16699999999999998,-5.067,50.61,20,1.7,268.3,822.717,0.0,1.4880000000000002,0.0,0.2662
136,744.388,959.615,126.78247,3.404,-0.142,-4.832,52.22,19,1.2,253.6,822.7130000000002,0.0,1.52,0.0,0.2637
137,749.4810000000001,961.847,127.04321000000002,3.341,-0.211,-4.9110000000000005,52.1,19,0.95,264.7,822.71,0.0,1.519,0.0,0.2628
138,752.712,963.419,127.30512,3.4789999999999996,-0.003,-4.303,54.34,22,1.45,215.8,822.703,0.0,1.6130000000000002,0.0,0.2619
139,757.31,966.975,127.5682,3.549,-0.206,-5.206,50.06,25,1.2,245.8,822.68,0.0,1.415,0.0,0.2602
140,761.545,965.199,127.83246,3.531,-0.48,-5.88,47.3,23,0.0,0.0,822.6669999999998,0.0,1.455,0.0,0.2584
141,764.8530000000002,963.34,128.09791,3.5439999999999996,-0.201,-5.101,50.53,23,0.7,246.6,822.663,0.0,1.421,0.0,0.2581
142,771.3889999999999,965.642,128.36456,3.732,0.27899999999999997,-3.921,55.14,26,3.7,124.5,822.6419999999998,0.0,1.725,0.0,0.2569
143,777.2489999999998,968.048,128.63241000000002,3.859,0.02,-4.88,50.36,28,2.45,148.1,822.659,0.0,1.67,0.0,0.2549
144,777.82,967.865,128.90147,3.825,0.081,-4.7189999999999985,51.18,28,1.7,122.5,822.655,0.0,1.643,0.0,0.2531
145,776.735,964.255,129.17175,3.886,0.358,-3.942,54.45,28,2.95,116.6,822.638,0.0,1.7990000000000002,0.0,0.2524
146,779.449,964.577,129.44326999999998,4.114,0.556,-3.744,54.49,27,3.7,115.0,822.6160000000001,0.0,1.776,0.0,0.2506
147,784.7719999999998,966.41,129.71601,4.1930000000000005,0.493,-4.207,52.1,26,4.2,118.3,822.572,0.0,1.758,0.0,0.248
148,789.3639999999998,966.75,129.99,3.893,0.506,-3.794,55.11,25,3.7,122.0,822.5880000000002,0.0,1.833,0.0,0.2468
149,794.2410000000001,969.601,130.26523999999998,3.78,0.008,-4.992,50.16,25,3.2,116.0,822.595,0.0,1.673,0.0,0.2447
150,793.518,966.86,130.54174,3.518,-0.281,-5.381,49.42,25,2.45,108.2,822.6010000000001,0.0,1.608,0.0,0.2435
151,793.502,963.811,130.8195,3.512,0.26,-3.74,56.87,25,1.95,146.5,822.579,0.0,1.872,0.0,0.2433
152,795.7739999999999,966.602,131.09854,3.791,0.314,-3.986,54.61,24,2.45,134.1,822.566,0.0,1.801,0.0,0.242
153,796.373,967.465,131.37886,3.928,0.456,-3.944,54.28,23,2.7,157.5,822.553,0.0,1.669,0.0,0.2409
154,800.9680000000002,968.106,131.66047,3.997,0.465,-4.035,53.6,22,3.2,155.6,822.5369999999998,0.0,1.668,0.0,0.2396
155,808.03,966.97,131.94337,3.82,-0.121,-5.3210000000000015,48.63,23,3.2,157.6,822.544,0.0,1.412,0.0,0.23800000000000002
156,818.7689999999999,967.984,132.22758000000002,3.614,-0.025,-4.625,52.37,28,2.7,140.1,822.55,0.0,1.5759999999999998,0.0,0.2369
157,822.36,969.344,132.51308999999998,3.642,0.108,-4.292,53.77,24,1.7,163.4,822.529,0.0,1.615,0.0,0.2342
158,819.551,970.639,132.79992,3.809,0.428,-3.872,55.07,22,4.45,140.7,822.505,0.0,1.767,0.0,0.2333
159,819.5939999999998,967.624,133.08808,3.827,0.09,-4.81,50.78,21,2.95,143.6,822.5260000000002,0.0,1.5759999999999998,0.0,0.2315
160,811.768,951.093,133.37756000000002,3.739,0.099,-4.501,52.46,24,2.7,142.4,822.515,0.0,1.481,0.0,0.2295
161,748.3860000000002,865.066,133.66839,3.696,-0.202,-5.502000000000002,48.3,21,2.7,129.1,822.515,0.0,1.506,0.0,0.2442
162,790.456,925.559,133.96056000000002,3.574,-0.289,-5.489,48.77,24,3.7,77.76,822.495,0.0,1.4240000000000002,0.0,0.2321
163,803.992,948.828,134.25406999999998,3.606,-0.415,-5.915,46.91,23,1.7,92.7,822.508,0.0,1.341,0.0,0.2253
164,808.065,951.898,134.54895,3.752,-0.429,-6.229,45.19,24,1.45,275.2,822.488,0.0,1.257,0.0,0.2245
165,803.38,944.415,134.84519,3.632,-0.261,-5.3610000000000015,49.11,26,2.2,257.6,822.475,0.0,1.34,0.0,0.2247
166,818.43,961.993,135.1428,3.551,-0.068,-4.668,52.41,25,2.2,195.8,822.475,0.0,1.425,0.0,0.2232
167,824.918,968.6,135.44179,3.438,-0.413,-5.6129999999999995,48.72,22,2.45,229.5,822.465,0.0,1.255,0.0,0.2212
168,828.202,971.846,135.74215,3.279,-0.354,-5.154,51.25,22,1.7,167.8,822.467,0.0,1.418,0.0,0.2204
169,834.725,974.551,136.04391,3.247,-0.486,-5.586,49.5,22,1.2,169.8,822.47,0.0,1.355,0.0,0.2198
170,837.845,978.175,136.34706,3.283,-0.321,-4.921,52.27,24,0.95,207.3,822.4630000000002,0.0,1.296,0.0,0.2186
171,838.824,980.008,136.65161,3.445,0.17,-4.03,55.75,23,0.95,99.3,822.46,0.0,1.278,0.0,0.218
172,846.302,980.578,136.95757,3.752,-0.157,-5.357,48.71,27,1.45,83.3,822.441,0.0,1.216,0.0,0.2162
173,841.492,972.471,137.26493,3.976,-0.138,-5.5379999999999985,47.21,29,1.2,44.63,822.422,0.0,1.114,0.0,0.2154
174,838.1489999999999,970.942,137.57371,3.997,0.039,-4.961,49.53,28,1.2,27.49,822.39,0.0,1.104,0.0,0.2147
175,837.5880000000002,975.634,137.88392,3.994,-0.015,-5.315,48.06,23,0.95,16.5,822.378,0.0,1.044,0.0,0.2138
176,834.48,977.868,138.19555,4.035,0.134,-4.8660000000000005,49.8,23,0.0,0.0,822.337,0.0,1.16,0.0,0.2128
177,829.008,977.842,138.50861,4.2410000000000005,0.541,-4.059,52.58,24,1.95,223.0,822.317,0.0,1.233,0.0,0.2121
