Time [Mins],Global CMP22 (vent/cor) [W/m^2],Direct sNIP [W/m^2],Azimuth Angle [degrees],Tower Dry Bulb Temp [deg C],Tower Wet Bulb Temp [deg C],Tower Dew Point Temp [deg C],Tower RH [%],Total Cloud Cover [%],Peak Wind Speed @ 6ft [m/s],Avg Wind Direction @ 6ft [deg from N],Station Pressure [mBar],Precipitation (Accumulated) [mm],Snow Depth [cm],Moisture,Albedo (CMP11)
0,297.8329999999999,891.303,122.14121000000002,-4.927,-6.343,-9.143,69.31,11,0.0,0.0,818.832,0.0,1.606,0.0,0.7298
1,301.355,894.6110000000001,122.33131000000002,-4.92,-6.369,-9.169,69.11,8,0.95,15.26,818.803,0.254,1.614,0.0,0.7291
2,305.173,898.5160000000002,122.5219,-4.949,-6.365,-9.065,69.92,10,0.0,0.0,818.7769999999998,0.254,1.646,0.0,0.7279
3,308.872,901.772,122.71297,-4.835,-6.245,-8.945,69.98,10,0.0,0.0,818.7489999999998,0.254,1.663,0.0,0.7266
4,312.349,904.607,122.90452,-4.727,-6.223,-9.123,68.26,10,0.0,0.0,818.742,0.508,1.622,0.0,0.7271
5,315.711,906.737,123.09656,-4.746,-6.3210000000000015,-9.321,67.18,10,0.7,284.3,818.7410000000001,0.508,1.642,0.0,0.7267
6,318.926,908.225,123.28909,-4.859,-6.437,-9.437,67.14,10,0.95,282.2,818.7410000000001,0.508,1.659,0.0,0.7267
7,322.125,911.068,123.48212,-4.957,-6.4129999999999985,-9.413,67.85,10,0.0,0.0,818.7410000000001,0.508,1.717,0.0,0.7261
8,325.488,914.393,123.67565,-4.971,-6.409,-9.309,68.56,10,0.0,0.0,818.7339999999998,0.508,1.706,0.0,0.7255
9,329.159,918.076,123.86968,-4.832,-6.347,-9.247,68.12,10,0.0,0.0,818.699,0.508,1.702,0.0,0.7248
10,332.416,919.957,124.06421,-4.604,-6.112,-9.112,67.61,10,0.0,0.0,818.696,0.762,1.597,0.0,0.7233
11,334.963,920.433,124.25925,-4.3069999999999995,-5.917999999999998,-8.918,67.06,11,0.0,0.0,818.689,0.762,1.586,0.0,0.7233
12,338.3,922.561,124.45481,-3.966,-5.747999999999998,-9.048,64.4,10,0.0,0.0,818.666,0.762,1.494,0.0,0.7224
13,341.715,923.466,124.65088,-3.822,-5.676,-9.276,62.35,11,0.95,43.96,818.6569999999998,0.762,1.474,0.0,0.7206
14,345.091,926.076,124.84746,-3.728,-5.556,-9.056,63.07,11,0.95,77.72,818.65,1.016,1.471,0.0,0.7211
15,347.765,926.544,125.04457,-3.515,-5.5139999999999985,-9.214,61.08,10,1.2,67.0,818.6489999999999,1.016,1.425,0.0,0.7205
16,350.116,925.056,125.2422,-3.444,-5.4670000000000005,-9.167,60.97,10,0.0,0.0,818.6669999999998,1.016,1.433,0.0,0.72
17,354.1,928.902,125.44036,-3.2310000000000003,-5.272,-8.872,61.46,10,0.0,0.0,818.676,1.016,1.422,0.0,0.7184
18,358.461,934.033,125.63905,-2.984,-5.1610000000000005,-9.061,59.2,10,0.0,0.0,818.666,1.016,1.368,0.0,0.7177
19,361.867,937.65,125.83828,-2.8139999999999996,-4.993,-8.993,58.71,10,0.0,0.0,818.64,1.27,1.332,0.0,0.7166
20,364.839,939.56,126.03804,-2.615,-4.813,-8.812999999999997,58.66,10,0.0,0.0,818.6110000000001,1.27,1.264,0.0,0.7163
21,367.81699999999995,940.581,126.23834,-2.362,-4.684,-8.783999999999999,57.57,11,0.0,0.0,818.5989999999998,1.27,1.194,0.0,0.7164
22,371.101,941.018,126.43918,-2.1,-4.524,-8.724,56.62,10,0.0,0.0,818.596,1.27,1.206,0.0,0.7161
23,373.773,941.213,126.64057,-1.96,-4.4860000000000015,-8.886000000000003,55.17,12,0.0,0.0,818.5939999999998,1.27,1.152,0.0,0.7152
24,376.807,942.025,126.84251,-1.94,-4.414,-8.914,54.94,13,1.2,91.1,818.567,1.27,1.218,0.0,0.7153
25,380.115,942.062,127.04501,-2.14,-4.595,-8.895,55.96,13,0.95,90.6,818.555,1.27,1.255,0.0,0.7154
26,383.486,943.841,127.24805,-2.298,-4.69,-8.89,56.73,10,1.2,92.1,818.553,1.524,1.308,0.0,0.7163
27,387.276,946.403,127.45166,-2.326,-4.695,-8.995,56.34,12,0.95,90.5,818.557,1.524,1.3,0.0,0.7162
28,391.182,949.279,127.65583,-2.249,-4.6819999999999995,-8.982000000000003,56.04,12,0.0,0.0,818.552,1.524,1.306,0.0,0.7139
29,394.907,951.042,127.86057,-2.147,-4.501,-8.701,56.96,14,0.0,0.0,818.533,1.524,1.357,0.0,0.7133
30,397.872,953.724,128.06587,-2.2880000000000003,-4.587,-8.787,57.2,15,0.95,162.3,818.5089999999999,1.524,1.346,0.0,0.7132
31,400.809,954.835,128.27175,-2.6060000000000003,-4.8580000000000005,-8.958,57.87,13,0.7,150.9,818.505,1.524,1.481,0.0,0.7134
32,403.71,956.161,128.47818999999998,-2.74,-4.876,-8.876,58.95,11,0.0,0.0,818.488,1.524,1.4880000000000002,0.0,0.7132
33,406.726,956.563,128.68522,-2.792,-5.059,-9.059,58.26,11,0.0,0.0,818.4760000000001,1.524,1.4509999999999998,0.0,0.7126
34,410.141,957.809,128.89282,-2.947,-5.085,-9.085,58.89,13,0.95,155.1,818.47,1.524,1.503,0.0,0.7115
35,413.223,958.442,129.10101,-3.182,-5.267,-9.267,59.11,11,0.95,162.0,818.4630000000002,1.524,1.569,0.0,0.7104
36,416.164,958.224,129.30979,-3.312,-5.377999999999999,-9.078,60.77,11,0.95,146.9,818.443,1.524,1.64,0.0,0.7101
37,419.504,898.064,129.51915,-3.3110000000000004,-5.379,-9.079,60.76,10,0.7,145.3,818.3939999999999,1.524,1.704,0.0,0.7088
38,422.755,962.714,129.72911000000002,-3.304,-5.331,-9.031,60.98,11,1.45,136.4,818.3580000000002,1.524,1.7519999999999998,0.0,0.7084
39,425.866,961.634,129.93966,-3.4419999999999997,-5.454,-9.154,61.03,12,1.2,139.4,818.352,1.524,1.716,0.0,0.7069
40,426.023,954.533,130.15081,-3.518,-5.569,-9.269,60.8,9,1.45,140.1,818.3380000000002,1.524,1.784,0.0,0.7064
41,426.047,948.412,130.36256,-3.625,-5.62,-9.32,61.08,8,1.45,126.1,818.301,1.524,1.755,0.0,0.7061
42,432.712,959.353,130.57491000000002,-3.686,-5.7120000000000015,-9.512,60.36,9,0.95,125.7,818.258,1.524,1.739,0.0,0.7058
43,438.18300000000005,966.773,130.78787,-3.657,-5.727,-9.627,59.6,11,0.95,118.3,818.2239999999998,1.524,1.757,0.0,0.7053
44,442.124,971.755,131.00143,-3.603,-5.625,-9.325,60.94,11,0.0,0.0,818.183,1.524,1.73,0.0,0.7045
45,444.342,971.326,131.21561,-3.355,-5.399,-9.199,60.34,8,0.0,0.0,818.133,1.524,1.695,0.0,0.7039
46,446.354,970.453,131.43041000000002,-3.045,-5.1960000000000015,-9.296,58.28,7,0.0,0.0,818.079,1.524,1.586,0.0,0.7027
47,447.598,966.459,131.64582,-2.772,-5.051,-9.351,56.68,9,0.0,0.0,818.033,1.524,1.546,0.0,0.7035
48,451.809,972.924,131.86185,-2.5839999999999996,-4.825,-8.925,57.93,11,0.0,0.0,818.0,1.524,1.521,0.0,0.7008
49,450.926,966.989,132.0785,-2.301,-4.698,-8.998,56.21,11,0.0,0.0,817.966,1.524,1.503,0.0,0.7004
50,451.932,964.628,132.29578,-2.0669999999999997,-4.545,-9.045,54.89,9,0.0,0.0,817.926,1.524,1.4369999999999998,0.0,0.7005
51,449.844,954.21,132.51369,-1.949,-4.4639999999999995,-8.964,54.74,9,1.45,29.39,817.9,1.524,1.479,0.0,0.7004
52,453.198,957.357,132.73223000000002,-2.156,-4.655,-9.055,55.25,11,0.0,0.0,817.9110000000002,1.524,1.4780000000000002,0.0,0.7008
53,460.825,970.128,132.9514,-2.298,-4.706,-8.906,56.65,11,0.95,25.79,817.8989999999999,1.524,1.537,0.0,0.6982
54,467.521,980.616,133.17121,-2.292,-4.676,-9.076,55.78,11,0.7,38.26,817.863,1.524,1.57,0.0,0.6976
55,471.712,983.988,133.39165,-2.299,-4.665,-8.965,56.36,9,1.2,34.83,817.8580000000002,1.778,1.5719999999999998,0.0,0.6974
56,473.844,981.756,133.61274,-2.441,-4.7410000000000005,-8.941,57.16,11,1.45,38.48,817.8889999999999,1.778,1.616,0.0,0.6847
57,474.88,977.866,133.83446999999998,-2.504,-4.695,-8.595,59.24,11,0.95,59.02,817.909,1.778,1.586,0.0,0.6881
58,480.05800000000005,983.857,134.05684,-2.5069999999999997,-4.713,-8.613,59.16,11,1.95,71.46,817.8960000000002,1.778,1.607,0.0,0.6971
59,482.862,984.119,134.27986,-2.45,-4.672,-8.572000000000001,59.09,11,1.7,77.19,817.8689999999998,1.778,1.5730000000000002,0.0,0.6974
60,487.554,988.12,134.50354,-2.229,-4.495,-8.495,58.4,11,1.2,90.2,817.873,1.778,1.565,0.0,0.6965
61,491.005,990.515,134.72786000000002,-2.04,-4.33,-8.23,58.84,11,1.2,86.0,817.8910000000002,1.778,1.615,0.0,0.696
62,493.054,989.715,134.95283999999998,-1.896,-4.268,-8.267999999999999,57.94,10,1.2,105.4,817.895,1.778,1.491,0.0,0.6944
63,494.914,988.762,135.17848,-1.796,-4.088,-8.088,58.37,12,1.2,50.18,817.87,1.778,1.5119999999999998,0.0,0.6938
64,498.205,991.642,135.40478000000002,-1.882,-4.169,-7.9689999999999985,59.41,12,1.45,98.4,817.8610000000001,1.778,1.582,0.0,0.6928
65,500.78,993.063,135.63173,-2.041,-4.317,-8.117,59.43,12,1.2,119.2,817.8530000000002,1.778,1.61,0.0,0.6919
66,502.855,993.186,135.85936,-2.219,-4.404,-8.004,60.92,11,1.95,86.1,817.846,1.778,1.707,0.0,0.6928
67,505.422,994.041,136.08765,-2.177,-4.433,-8.333,58.98,12,1.95,72.76,817.817,1.778,1.643,0.0,0.6915
68,507.944,994.056,136.3166,-2.184,-4.5089999999999995,-8.509,58.11,13,1.45,84.0,817.8,1.778,1.654,0.0,0.6903
69,511.0619999999999,996.962,136.54623,-2.236,-4.494,-8.494,58.44,13,1.7,95.7,817.783,1.778,1.6769999999999998,0.0,0.6897
70,515.021,1000.92,136.77653,-2.275,-4.363,-8.062999999999999,60.89,11,1.2,64.95,817.768,1.778,1.681,0.0,0.6886
71,517.072,1000.18,137.0075,-2.266,-4.314,-7.814,62.19,11,1.45,53.4,817.7260000000001,1.778,1.704,0.0,0.6881
72,519.827,1000.62,137.23915,-2.267,-4.197,-7.497000000000001,63.94,11,2.2,48.27,817.711,1.778,1.724,0.0,0.6865
73,521.17,997.909,137.47146999999998,-2.414,-4.355,-7.455,64.97,11,2.2,34.43,817.732,1.778,1.739,0.0,0.6859999999999999
74,523.41,997.072,137.70448000000002,-2.623,-4.455,-7.455,66.12,11,1.95,51.88,817.7410000000001,1.778,1.843,0.0,0.6856
75,525.644,996.61,137.93816,-2.779,-4.5569999999999995,-7.457000000000002,66.98,11,2.2,53.08,817.758,1.778,1.816,0.0,0.6855
76,529.826,1000.18,138.17253,-2.9330000000000003,-4.5969999999999995,-7.497000000000001,67.62,12,2.2,46.08,817.7660000000002,1.778,1.878,0.0,0.684
77,532.1519999999998,1000.45,138.40758,-2.978,-4.6960000000000015,-7.496,67.88,12,2.45,56.77,817.7760000000002,1.778,1.863,0.0,0.6841
78,532.56,995.796,138.64332,-3.0189999999999997,-4.657,-7.357,68.95,12,2.2,45.38,817.794,1.778,1.873,0.0,0.6828
79,535.086,996.005,138.87975,-3.0580000000000003,-4.666,-7.466,68.52,10,2.2,51.22,817.803,1.778,1.873,0.0,0.6825
80,537.841,995.811,139.11687,-3.128,-4.79,-7.69,67.59,10,2.45,38.96,817.813,1.778,1.874,0.0,0.6808
81,540.923,998.052,139.35467,-3.263,-4.912,-7.812,67.64,10,2.2,49.46,817.817,1.778,1.931,0.0,0.6801
82,544.778,1001.9,139.59317,-3.4330000000000003,-4.98,-7.78,68.81,9,2.45,55.98,817.823,1.778,1.962,0.0,0.6783
83,547.102,1001.9,139.83237,-3.4410000000000003,-5.095,-7.895,68.17,9,2.45,50.89,817.824,1.778,1.924,0.0,0.6769
84,548.504,999.553,140.07226,-3.455,-4.996,-7.6960000000000015,69.45,10,2.2,30.47,817.822,1.778,1.943,0.0,0.6756
85,550.665,998.445,140.31284,-3.466,-5.066,-7.866,68.49,13,2.7,35.81,817.819,1.778,1.955,0.0,0.6753
86,554.523,1002.75,140.55411999999998,-3.498,-5.06,-7.76,69.31,13,2.2,38.12,817.798,1.778,1.973,0.0,0.6752
87,556.762,1004.55,140.7961,-3.515,-5.029,-7.729,69.6,13,2.95,49.42,817.768,1.778,2.036,0.0,0.674
88,558.168,1003.38,141.03878,-3.494,-5.0280000000000005,-7.728,69.48,14,2.2,30.69,817.7739999999999,1.778,1.972,0.0,0.6736
89,561.476,1007.67,141.28216,-3.426,-5.045,-7.845,68.38,14,1.95,28.25,817.7819999999998,1.778,1.941,0.0,0.6723
90,564.278,1010.56,141.52624,-3.339,-4.949,-7.749,68.45,14,1.7,50.99,817.7460000000002,1.778,1.984,0.0,0.6703
91,566.61,1014.27,141.77102,-3.233,-4.824,-7.624,68.59,13,1.2,53.61,817.69,1.778,1.929,0.0,0.6699
92,568.631,1015.32,142.01651,-3.054,-4.726,-7.526,68.14,12,1.7,40.44,817.627,1.778,1.966,0.0,0.6694
93,571.081,1015.6,142.26269,-3.018,-4.629,-7.4289999999999985,68.51,13,2.2,48.95,817.6139999999998,1.778,1.863,0.0,0.6678
94,573.311,1014.92,142.50959,-2.989,-4.6789999999999985,-7.6789999999999985,66.87,13,1.95,60.05,817.587,1.778,1.901,0.0,0.6672
95,576.048,1016.03,142.75718999999995,-2.9560000000000004,-4.6789999999999985,-7.6789999999999985,66.68,14,1.7,45.86,817.576,1.778,1.923,0.0,0.6655
96,577.499,1014.78,143.00548999999995,-2.8339999999999996,-4.438,-7.0379999999999985,69.79,15,1.2,72.45,817.617,1.778,2.053,0.0,0.6645
97,579.99,1015.78,143.2545,-2.526,-4.263,-7.063,67.86,15,1.7,72.82,817.633,1.778,1.98,0.0,0.6629999999999999
98,582.06,1016.49,143.50422,-2.355,-4.23,-7.33,65.36,13,1.95,92.1,817.605,1.778,1.869,0.0,0.6619
99,584.932,1018.24,143.75465,-2.2,-4.2810000000000015,-7.681,62.57,11,2.95,90.3,817.523,1.778,1.778,0.0,0.6601
100,587.795,1019.58,144.00578000000004,-2.049,-4.289,-7.989,60.14,10,1.7,68.91,817.48,1.778,1.737,0.0,0.6596
101,588.207,1014.77,144.25762,-1.997,-4.143,-7.643,61.72,11,0.95,65.82,817.512,1.778,1.749,0.0,0.6579999999999999
102,589.313,1012.15,144.51017,-1.794,-3.926,-7.426,61.84,15,0.0,0.0,817.538,1.778,1.746,0.0,0.6568
103,590.27,1009.17,144.76342,-1.499,-3.769,-7.4689999999999985,60.11,11,0.0,0.0,817.5189999999999,1.778,1.641,0.0,0.6549
104,594.5369999999998,1013.22,145.01738,-1.284,-3.577,-7.377000000000002,59.52,11,1.95,62.1,817.471,1.778,1.58,0.0,0.6534
105,599.38,1018.09,145.27205,-1.189,-3.532,-7.232,59.8,10,2.45,66.4,817.4630000000002,1.778,1.6469999999999998,0.0,0.652
106,602.045,1017.85,145.52743,-1.18,-3.455,-7.155,60.16,11,1.45,38.55,817.52,1.778,1.575,0.0,0.6509999999999999
107,604.734,1016.25,145.78351,-1.212,-3.549,-7.249,59.83,13,1.7,23.17,817.564,1.778,1.5630000000000002,0.0,0.6482
108,606.673,1015.22,146.04031,-1.467,-3.67,-7.37,60.47,12,1.45,24.67,817.539,1.778,1.608,0.0,0.6472
109,609.974,1017.96,146.2978,-1.707,-3.838,-7.438,61.33,10,1.2,45.99,817.482,1.778,1.65,0.0,0.6438
110,613.049,1021.73,146.55601,-1.764,-3.703,-6.903,64.56,11,2.2,78.51,817.451,1.778,1.808,0.0,0.6424
111,615.254,1024.43,146.81492,-1.744,-3.867,-7.367000000000001,61.9,10,1.95,99.9,817.438,1.778,1.789,0.0,0.6415
112,616.356,1024.71,147.07453,-1.607,-3.909,-7.609,59.92,10,0.7,85.6,817.43,1.778,1.681,0.0,0.6395
113,615.286,1019.67,147.33485,-1.32,-3.678,-7.5779999999999985,58.66,11,0.0,0.0,817.457,1.778,1.6230000000000002,0.0,0.6371
114,615.4,1017.99,147.59587,-1.064,-3.45,-7.25,59.09,12,0.95,70.38,817.431,1.778,1.5619999999999998,0.0,0.6359
115,617.841,1020.27,147.85759,-0.8490000000000001,-3.411,-7.411,57.24,10,1.2,56.07,817.38,1.778,1.541,0.0,0.6341
116,620.5409999999998,1022.31,148.12001999999995,-0.904,-3.241,-7.041,59.38,10,1.2,59.42,817.334,1.778,1.599,0.0,0.6324
117,621.4,1021.08,148.38314,-0.968,-3.139,-6.439,62.9,10,1.95,65.9,817.3330000000002,1.778,1.754,0.0,0.631
118,624.674,1024.76,148.64696,-0.967,-3.197,-6.597,62.04,11,1.7,67.06,817.3530000000002,1.778,1.764,0.0,0.6286
119,627.215,1028.21,148.91149,-0.898,-3.357,-7.357,57.74,10,1.7,63.23,817.34,1.778,1.608,0.0,0.6276
120,629.34,1029.8,149.1767,-0.974,-3.182,-6.682,61.62,11,2.2,57.28,817.32,1.778,1.666,0.0,0.627
121,632.883,1032.91,149.44261,-1.19,-3.4730000000000003,-6.973,61.17,9,2.45,64.4,817.289,1.778,1.642,0.0,0.6245
122,633.678,1031.55,149.70922,-1.4,-3.606,-7.206,61.0,9,1.2,72.92,817.2739999999999,1.778,1.672,0.0,0.6221
123,635.25,1032.03,149.97652,-1.284,-3.5410000000000004,-7.241,60.23,8,0.7,115.9,817.255,1.778,1.65,0.0,0.6195
124,637.643,1033.5,150.2445,-1.104,-3.45,-7.05,60.33,9,1.7,100.0,817.227,1.778,1.761,0.0,0.6173
125,639.994,1034.97,150.51318,-1.088,-3.357,-7.057,60.21,10,1.7,91.0,817.165,1.778,1.713,0.0,0.6159
126,641.783,1034.89,150.78253999999995,-1.044,-3.3310000000000004,-7.0310000000000015,60.13,10,1.2,90.1,817.1160000000001,1.778,1.682,0.0,0.6136
127,643.482,1034.35,151.05258,-0.937,-3.2710000000000004,-6.971,59.91,11,2.2,103.2,817.107,1.778,1.777,0.0,0.6113
128,641.639,1029.17,151.32331000000005,-0.909,-3.153,-6.653,61.44,11,0.95,103.2,817.1239999999998,1.778,1.815,0.0,0.6091
129,643.195,1029.94,151.59472,-0.738,-3.016,-6.516,61.3,11,0.0,0.0,817.154,1.778,1.839,0.0,0.6078
130,645.2330000000002,1032.47,151.8668,-0.601,-3.109,-7.109,57.57,12,1.2,101.9,817.155,1.778,1.712,0.0,0.6062
131,647.242,1033.16,152.13956000000005,-0.5539999999999999,-3.17,-7.17,57.04,9,1.95,86.1,817.1339999999999,1.778,1.726,0.0,0.6038
132,649.506,1032.83,152.41298999999995,-0.475,-3.003,-6.903,58.0,10,1.95,93.9,817.1110000000001,1.778,1.737,0.0,0.6017
133,650.596,1029.97,152.6871,-0.461,-2.9989999999999997,-6.7989999999999995,58.46,9,1.2,64.93,817.096,1.778,1.634,0.0,0.5995
134,651.788,1028.14,152.96186,-0.387,-2.915,-6.815,58.02,10,1.95,114.1,817.0830000000002,1.778,1.6909999999999998,0.0,0.5971
135,652.751,1027.59,153.2373,-0.6890000000000001,-3.304,-7.404,56.52,11,1.7,118.8,817.062,1.778,1.768,0.0,0.5959
136,654.388,1027.98,153.51339,-1.018,-3.373,-7.0729999999999995,59.78,11,1.7,98.4,817.047,1.778,1.816,0.0,0.5931
137,654.92,1025.74,153.79013999999995,-1.047,-3.5439999999999996,-7.744,56.52,10,0.7,140.9,817.023,1.778,1.743,0.0,0.5902
138,656.35,1026.04,154.06755,-0.984,-3.5469999999999997,-7.747000000000001,56.21,10,0.0,0.0,817.0219999999998,1.778,1.6980000000000002,0.0,0.5875
139,658.012,1027.64,154.34561000000005,-0.743,-3.318,-7.318,57.2,9,0.0,0.0,817.0169999999998,1.778,1.661,0.0,0.5847
140,659.947,1030.93,154.62431999999995,-0.524,-3.102,-7.202000000000001,56.74,10,0.0,0.0,816.9910000000001,1.778,1.609,0.0,0.5820000000000001
141,661.7669999999998,1032.86,154.90367,-0.363,-3.1639999999999997,-7.564,54.25,11,0.7,15.75,816.9680000000002,1.778,1.596,0.0,0.5789
142,662.455,1033.13,155.18366,-0.285,-3.165,-7.665,53.43,10,0.0,0.0,816.924,1.778,1.652,0.0,0.5766
143,663.612,1034.67,155.4643,-0.28600000000000003,-3.077,-7.477,54.32,9,0.0,0.0,816.862,1.778,1.5830000000000002,0.0,0.5736
144,666.1310000000002,1038.68,155.74556,-0.258,-3.076,-7.676,53.26,10,0.0,0.0,816.81,1.778,1.551,0.0,0.5715
145,668.122,1042.02,156.02746000000005,-0.244,-2.986,-7.186,55.52,10,1.7,62.83,816.768,1.778,1.658,0.0,0.5689
146,669.438,1041.26,156.30998,-0.245,-2.883,-6.882999999999999,57.01,10,1.7,89.6,816.763,1.778,1.7080000000000002,0.0,0.5673
147,671.605,1041.13,156.59312,-0.106,-2.8369999999999997,-7.037000000000001,55.61,9,0.95,78.41,816.7739999999999,1.778,1.58,0.0,0.5644
148,673.64,1041.72,156.87689,0.123,-2.474,-6.274,58.37,9,0.7,96.8,816.7919999999998,1.778,1.696,0.0,0.5606
149,673.4910000000001,1038.78,157.16126,0.384,-2.356,-6.456,56.38,9,0.95,115.7,816.794,1.778,1.604,0.0,0.5577
150,673.867,1037.84,157.44625,0.473,-2.441,-6.7410000000000005,54.65,9,1.95,86.5,816.7669999999998,1.778,1.538,0.0,0.5554
151,676.068,1040.17,157.73183,0.561,-2.406,-7.006,53.07,10,1.95,89.0,816.722,1.778,1.513,0.0,0.5535
152,678.832,1043.85,158.01802,0.647,-2.313,-6.6129999999999995,54.57,11,2.2,93.6,816.6569999999998,1.778,1.527,0.0,0.5503
153,680.008,1044.41,158.3048,0.564,-2.115,-5.915,58.31,11,1.7,93.9,816.595,1.778,1.662,0.0,0.5484
154,682.806,1047.16,158.59218,0.517,-2.232,-6.232,56.93,11,2.7,116.7,816.562,1.778,1.693,0.0,0.5454
155,684.008,1046.27,158.88013999999995,0.208,-2.386,-6.086,58.96,11,2.45,107.8,816.557,1.778,1.816,0.0,0.5429
156,685.8430000000002,1046.41,159.16867,0.061,-2.58,-6.68,56.61,13,1.45,65.14,816.562,1.778,1.575,0.0,0.5396
157,687.477,1046.63,159.45779,0.096,-2.5669999999999997,-6.567,57.02,13,1.2,77.01,816.558,1.778,1.682,0.0,0.5367
158,689.212,1046.72,159.74747,0.303,-2.41,-6.41,56.94,13,1.45,68.48,816.5319999999998,1.778,1.628,0.0,0.5337
159,691.28,1046.72,160.03771,0.517,-2.195,-6.295,56.62,13,1.45,99.2,816.508,1.778,1.7080000000000002,0.0,0.5305
160,691.057,1044.09,160.32852,0.755,-2.197,-6.497000000000001,54.69,13,0.95,111.8,816.4960000000002,1.778,1.582,0.0,0.5279
161,694.143,1046.52,160.61987,0.922,-2.185,-6.785,52.7,13,0.7,150.7,816.498,1.778,1.633,0.0,0.5245
162,694.939,1045.64,160.91178,0.8909999999999999,-2.281,-7.081,51.48,13,1.95,149.1,816.472,1.778,1.439,0.0,0.5219
163,696.9810000000001,1046.38,161.20422,0.784,-2.497,-7.597,49.6,13,1.45,137.2,816.4019999999998,1.778,1.45,0.0,0.5186
164,699.177,1046.11,161.4972,0.674,-2.559,-7.459,50.6,15,1.45,121.7,816.335,1.778,1.531,0.0,0.5156
165,701.1039999999998,1045.26,161.79071000000005,0.524,-2.568,-7.268,52.01,15,1.7,150.6,816.283,1.778,1.486,0.0,0.5131
166,700.672,1040.38,162.08473999999995,0.364,-2.7569999999999997,-7.557,51.31,14,0.0,0.0,816.253,1.778,1.494,0.0,0.5104
167,707.1060000000001,1046.81,162.37929,0.41,-2.73,-7.53,51.26,14,0.0,0.0,816.258,1.778,1.578,0.0,0.5065
168,709.459,1047.88,162.67435,0.53,-2.414,-7.0139999999999985,53.15,14,1.7,252.0,816.291,1.778,1.56,0.0,0.5033
169,709.919,1045.05,162.96991,0.514,-2.597,-7.497000000000001,51.02,13,1.45,245.6,816.335,1.778,1.528,0.0,0.5002
170,711.804,1044.44,163.26596999999995,0.398,-2.675,-7.475,51.55,13,1.2,265.0,816.324,1.778,1.496,0.0,0.4971
171,714.4580000000002,1046.7,163.56252,0.29600000000000004,-2.755,-7.555,51.57,14,0.0,0.0,816.263,1.778,1.485,0.0,0.4938
172,715.6460000000002,1047.79,163.85955,0.28600000000000003,-2.7460000000000004,-7.546,51.65,16,0.0,0.0,816.18,1.778,1.472,0.0,0.4896
