Time [Mins],Global CMP22 (vent/cor) [W/m^2],Direct sNIP [W/m^2],Azimuth Angle [degrees],Tower Dry Bulb Temp [deg C],Tower Wet Bulb Temp [deg C],Tower Dew Point Temp [deg C],Tower RH [%],Total Cloud Cover [%],Peak Wind Speed @ 6ft [m/s],Avg Wind Direction @ 6ft [deg from N],Station Pressure [mBar],Precipitation (Accumulated) [mm],Snow Depth [cm],Moisture,Albedo (CMP11)
0,442.693,874.301,83.35361999999998,16.73,9.179,2.799,39.22,16,1.7,276.3,814.7180000000002,0.0,-0.354,0.0,0.2243
1,446.318,876.439,83.50199,16.76,9.125,2.725,38.94,17,1.95,285.4,814.693,0.0,-0.336,0.0,0.2243
2,449.827,877.951,83.65051,16.75,9.179,2.799,39.17,15,1.2,279.1,814.684,0.0,-0.344,0.0,0.2238
3,453.256,879.3580000000002,83.79921,16.77,9.314,3.214,40.29,14,0.95,266.5,814.675,0.0,-0.301,0.0,0.2233
4,456.737,881.573,83.94808,16.82,9.385,3.385,40.65,13,1.2,263.0,814.6569999999998,0.0,-0.303,0.0,0.2228
5,460.028,883.04,84.09713,16.89,9.436,3.3360000000000003,40.33,14,2.95,253.6,814.6260000000002,0.0,-0.37,0.0,0.2228
6,463.594,884.441,84.24636,16.88,9.405,3.225,40.04,14,2.7,258.9,814.612,0.0,-0.3779999999999999,0.0,0.2228
7,467.046,885.693,84.39577,16.84,9.416,3.3160000000000003,40.4,16,1.95,246.8,814.6039999999998,0.0,-0.41,0.0,0.2225
8,470.589,887.4839999999998,84.54538000000002,16.82,9.53,3.63,41.36,17,1.45,249.1,814.592,0.0,-0.292,0.0,0.2215
9,474.06,888.977,84.69516999999998,16.85,9.253,2.9530000000000003,39.35,14,2.2,252.0,814.584,0.0,-0.423,0.0,0.2214
10,477.46,890.039,84.84517,16.84,9.294,2.994,39.49,13,2.2,252.7,814.584,0.0,-0.426,0.0,0.221
11,480.929,891.654,84.99537,16.81,9.459,3.4589999999999996,40.89,14,0.45,266.2,814.585,0.0,-0.34299999999999997,0.0,0.2201
12,484.276,892.1410000000002,85.14578,16.89,9.392,3.1919999999999997,39.92,14,0.95,305.5,814.577,0.0,-0.366,0.0,0.2194
13,487.616,893.6010000000001,85.29641,17.02,9.302,2.812,38.54,12,2.2,292.7,814.559,0.0,-0.41,0.0,0.2191
14,490.94,894.9910000000001,85.44725,17.03,9.356,2.9560000000000004,38.91,12,1.7,278.2,814.565,0.0,-0.293,0.0,0.2187
15,494.125,895.923,85.59831,17.03,9.126,2.526,37.74,12,1.45,304.9,814.554,0.0,-0.459,0.0,0.2182
16,496.971,896.1619999999998,85.7496,17.01,9.345,2.945,38.93,11,0.95,289.7,814.55,0.0,-0.275,0.0,0.2174
17,500.649,898.331,85.90111999999998,17.05,9.385,3.085,39.22,11,1.95,285.9,814.551,0.0,-0.227,0.0,0.217
18,504.19199999999995,900.2310000000001,86.05288,17.18,9.385,2.885,38.35,13,1.45,267.5,814.547,0.0,-0.364,0.0,0.2168
19,507.679,901.735,86.20488,17.29,9.424,2.8539999999999996,38.0,12,1.2,254.8,814.5419999999998,0.0,-0.419,0.0,0.2165
20,510.932,903.47,86.35712,17.32,9.523,3.123,38.66,11,0.95,245.3,814.528,0.0,-0.4320000000000001,0.0,0.2159
21,514.165,904.937,86.50962,17.36,9.389,2.6889999999999996,37.39,12,0.7,273.0,814.5089999999999,0.0,-0.447,0.0,0.2153
22,517.2909999999998,905.921,86.66237,17.4,9.584,3.1839999999999997,38.63,12,1.7,235.6,814.5010000000002,0.0,-0.35600000000000004,0.0,0.2147
23,520.698,906.82,86.81539000000002,17.46,9.479,2.9789999999999996,37.93,12,1.7,236.5,814.498,0.0,-0.4370000000000001,0.0,0.2142
24,523.9169999999998,907.461,86.96866999999997,17.5,9.466,2.866,37.53,11,1.95,243.8,814.495,0.0,-0.446,0.0,0.214
25,526.953,908.095,87.12222,17.47,9.399,2.609,36.92,11,0.95,258.7,814.4860000000001,0.0,-0.3720000000000001,0.0,0.2135
26,530.539,909.938,87.27605,17.56,9.692,3.392,38.81,11,0.0,0.0,814.488,0.0,-0.315,0.0,0.2125
27,533.754,911.602,87.43016,17.7,9.617,3.017,37.46,11,0.0,0.0,814.4789999999998,0.0,-0.325,0.0,0.2121
28,536.918,912.923,87.58455,17.85,10.149,4.079,40.0,11,0.0,0.0,814.487,0.0,-0.231,0.0,0.2114
29,540.125,914.51,87.73924,18.09,10.241,4.061,39.35,11,0.0,0.0,814.488,0.0,-0.3720000000000001,0.0,0.2112
30,543.4580000000002,915.582,87.89423000000002,18.25,9.957,3.357,37.07,11,0.45,247.3,814.4830000000002,0.0,-0.486,0.0,0.21100000000000002
31,546.4069999999998,916.7,88.04953,18.33,10.383,4.283,39.37,12,0.95,224.1,814.485,0.0,-0.415,0.0,0.2107
32,549.901,917.689,88.20512,18.39,10.047,3.347,36.72,12,0.95,178.4,814.477,0.0,-0.445,0.0,0.2104
33,553.432,918.009,88.36104,18.33,9.794,2.7939999999999996,35.44,11,0.45,180.4,814.477,0.0,-0.52,0.0,0.2097
34,557.181,918.379,88.51728,18.26,9.935,3.155,36.52,11,0.0,0.0,814.455,0.0,-0.464,0.0,0.2086
35,560.575,919.354,88.67384,18.39,9.989,3.1889999999999996,36.31,13,0.0,0.0,814.44,0.0,-0.483,0.0,0.2079
36,563.664,921.097,88.83073,18.47,10.067,3.267,36.33,13,0.0,0.0,814.438,0.0,-0.314,0.0,0.2074
37,566.804,922.226,88.98796,18.51,10.287,3.887,37.86,11,1.45,229.6,814.409,0.0,-0.375,0.0,0.2071
38,569.9830000000002,923.191,89.14554,18.57,10.226,3.626,37.03,12,1.2,213.1,814.3989999999999,0.0,-0.394,0.0,0.2066
39,573.403,924.357,89.30346,18.62,10.62,4.52,39.31,12,1.2,151.0,814.4,0.0,-0.28,0.0,0.2061
40,576.605,925.394,89.46174,18.82,10.371,3.771,36.83,13,0.95,182.3,814.383,0.0,-0.325,0.0,0.20600000000000002
41,579.859,926.34,89.62038000000003,18.87,10.317,3.617,36.32,13,0.0,0.0,814.3760000000002,0.0,-0.423,0.0,0.2058
42,583.086,926.865,89.77939,18.8,10.163,3.193,35.4,15,0.95,162.5,814.3689999999998,0.0,-0.331,0.0,0.2054
43,586.221,928.149,89.93876999999998,18.75,10.205,3.335,35.87,16,0.95,163.6,814.3610000000001,0.0,-0.396,0.0,0.2048
44,589.6709999999998,929.023,90.09853,18.71,10.211,3.511,36.41,15,0.95,140.2,814.3589999999998,0.0,-0.456,0.0,0.2041
45,592.8530000000002,929.456,90.25868,18.73,10.197,3.497,36.33,15,0.45,251.0,814.3530000000002,0.0,-0.382,0.0,0.2035
46,595.6619999999998,930.375,90.41922,18.87,10.476,3.896,37.04,14,0.7,250.8,814.3489999999998,0.0,-0.476,0.0,0.2031
47,598.8330000000002,931.647,90.58016,19.05,10.48,3.78,36.33,15,1.7,84.1,814.347,0.0,-0.273,0.0,0.2025
48,602.003,933.471,90.74151,19.34,10.398,3.398,34.73,15,0.0,0.0,814.3430000000002,0.0,-0.396,0.0,0.2022
49,604.882,934.938,90.90327,19.69,10.873,4.073,35.64,17,1.45,98.1,814.337,0.0,-0.32899999999999996,0.0,0.2021
50,608.485,936.124,91.06545,19.91,10.539,3.0389999999999997,32.68,18,1.7,106.2,814.321,0.0,-0.434,0.0,0.2022
51,612.127,937.125,91.22806,19.84,10.452,2.952,32.62,18,1.7,63.52,814.305,0.0,-0.419,0.0,0.20199999999999999
52,615.762,937.821,91.3911,19.67,10.791,3.891,35.23,19,1.2,131.3,814.306,0.0,-0.49,0.0,0.201
53,619.275,938.501,91.55457,19.63,10.774,3.884,35.3,18,2.2,119.9,814.2860000000002,0.0,-0.18600000000000005,0.0,0.2008
54,622.714,939.727,91.7185,19.6,10.361,2.9610000000000003,33.13,18,2.95,129.3,814.2660000000002,0.0,-0.253,0.0,0.201
55,626.471,940.363,91.88288,19.38,10.185,2.785,33.17,20,0.7,143.6,814.268,0.0,-0.255,0.0,0.2002
56,629.803,940.367,92.04772,19.28,9.916,2.2159999999999997,32.05,19,0.0,0.0,814.2660000000002,0.0,-0.361,0.0,0.1993
57,632.742,941.042,92.21303,19.29,10.295,3.195,34.34,18,1.7,73.53,814.245,0.0,-0.208,0.0,0.1989
58,635.507,941.941,92.37882,19.46,10.461,3.361,34.38,17,2.2,113.2,814.2280000000002,0.0,-0.17800000000000002,0.0,0.19899999999999998
59,638.418,942.373,92.54509,19.48,10.117,2.417,32.11,19,1.95,106.6,814.2289999999998,0.0,-0.317,0.0,0.19899999999999998
60,641.558,942.09,92.71184,19.39,10.108,2.508,32.5,20,1.2,105.1,814.2230000000002,0.0,-0.211,0.0,0.1985
61,644.535,942.616,92.8791,19.36,10.174,2.674,32.95,18,1.2,139.7,814.225,0.0,-0.115,0.0,0.1979
62,647.048,942.79,93.04687,19.31,10.143,2.643,32.98,16,1.95,145.1,814.227,0.0,-0.135,0.0,0.1978
63,650.029,942.74,93.21515,19.27,10.204,2.904,33.68,15,1.45,136.6,814.2360000000001,0.0,-0.194,0.0,0.1974
64,652.48,942.829,93.38395,19.25,10.529000000000002,3.649,35.55,16,2.2,134.6,814.237,0.0,-0.075,0.0,0.1971
65,655.497,943.659,93.55329,19.25,10.392,3.392,34.91,16,1.95,144.6,814.2460000000002,0.0,-0.147,0.0,0.1969
66,657.778,943.554,93.72316,19.22,10.502,3.702,35.75,17,0.0,0.0,814.25,0.0,-0.281,0.0,0.1963
67,660.683,943.778,93.89358,19.31,10.905,4.515,37.64,16,1.95,98.5,814.237,0.0,0.125,0.0,0.1959
68,664.112,944.981,94.06455,19.55,10.937,4.437,36.88,14,3.45,123.2,814.221,0.0,0.127,0.0,0.1962
69,667.784,946.59,94.23609,19.6,10.892,4.212,36.19,13,3.7,116.6,814.2239999999998,0.0,-0.108,0.0,0.1966
70,670.937,936.826,94.4082,19.49,10.864,4.364,36.83,14,2.7,133.9,814.2410000000001,0.0,-0.16,0.0,0.1961
71,673.922,904.353,94.58088,19.38,10.871,4.371,37.1,15,1.7,142.9,814.242,0.0,-0.17600000000000002,0.0,0.1954
72,677.2439999999998,946.605,94.75417,19.35,10.748,4.248,36.85,13,1.7,146.1,814.2180000000002,0.0,-0.07200000000000001,0.0,0.1949
73,680.443,948.235,94.92804,19.43,11.189,5.0889999999999995,38.89,13,2.7,121.3,814.2,0.0,0.108,0.0,0.1945
74,683.4680000000002,949.188,95.10253,19.54,10.819,4.119,36.09,14,2.7,129.3,814.197,0.0,0.005,0.0,0.1947
75,616.19,949.563,95.27763,19.52,10.856,4.356,36.74,13,1.2,123.2,814.183,0.0,-0.136,0.0,0.2161
76,688.596,949.891,95.45336,19.57,11.172,4.9719999999999995,38.24,12,2.95,121.1,814.1610000000002,0.0,0.061,0.0,0.1938
77,691.663,951.177,95.62972,19.73,11.161,4.8610000000000015,37.57,14,2.2,116.3,814.1669999999998,0.0,0.087,0.0,0.1938
78,694.252,952.119,95.80673,19.83,11.332,5.052,37.84,12,2.45,152.5,814.16,0.0,0.027000000000000003,0.0,0.1934
79,696.561,952.542,95.98439,20.0,11.447,5.1770000000000005,37.77,13,1.95,152.8,814.16,0.0,0.119,0.0,0.1931
80,699.0419999999998,953.625,96.16272,20.15,11.503,5.2029999999999985,37.49,13,1.95,143.4,814.1569999999998,0.0,0.045,0.0,0.1932
81,701.836,954.221,96.34172,20.27,11.467,4.977,36.63,10,3.2,130.0,814.1389999999999,0.0,0.065,0.0,0.1931
82,704.6080000000002,954.213,96.52141,20.28,11.666,5.566,38.14,11,1.95,116.5,814.12,0.0,0.078,0.0,0.193
83,707.6410000000002,955.016,96.70179,20.35,11.561,5.1610000000000005,36.92,13,1.7,162.9,814.1260000000002,0.0,-0.139,0.0,0.1929
84,710.424,955.179,96.88287,20.44,11.589,5.119,36.61,13,0.7,129.3,814.12,0.0,-0.17,0.0,0.1945
85,713.56,956.482,97.06467,20.53,11.725,5.425,37.19,11,2.95,137.0,814.112,0.0,-0.16399999999999998,0.0,0.1917
86,716.2689999999999,957.494,97.24719,20.61,11.928,5.7379999999999995,37.82,10,3.7,111.5,814.084,0.0,0.145,0.0,0.1914
87,719.178,957.399,97.43045,20.68,11.686,5.186,36.24,13,3.7,125.2,814.095,0.0,-0.151,0.0,0.1916
88,723.007,958.832,97.61446,20.47,11.682,5.3020000000000005,37.01,13,3.45,116.2,814.087,0.0,-0.156,0.0,0.1913
89,726.441,959.056,97.79922,20.21,11.22,4.52,35.61,11,3.45,145.8,814.0930000000002,0.0,-0.16399999999999998,0.0,0.1906
90,728.7660000000002,958.282,97.98476,20.04,11.603,5.603,38.81,10,2.45,108.8,814.075,0.0,0.034,0.0,0.1896
91,732.2810000000002,959.644,98.17107,20.21,11.717,5.7170000000000005,38.71,11,2.7,93.0,814.0369999999998,0.0,0.083,0.0,0.1891
92,733.416,958.109,98.35818,20.51,11.868,5.6979999999999995,37.95,12,2.95,90.2,814.025,0.0,0.166,0.0,0.18899999999999997
93,735.8330000000002,958.233,98.54609,20.71,11.545,4.755,35.1,15,3.45,108.4,813.997,0.0,-0.105,0.0,0.1891
94,738.4780000000002,958.067,98.73482,20.65,11.536,4.836,35.43,16,2.7,114.3,814.0010000000002,0.0,-0.134,0.0,0.1887
95,741.602,958.719,98.92437,20.62,11.816,5.516,37.22,15,2.95,102.3,813.9680000000002,0.0,-0.023,0.0,0.1884
96,744.6160000000001,959.968,99.11476,20.63,11.93,5.74,37.78,14,1.7,95.5,813.945,0.0,-0.124,0.0,0.1881
97,747.7330000000002,961.894,99.30601,20.75,12.112,6.112,38.48,14,2.7,98.6,813.916,0.0,0.05,0.0,0.1876
98,750.9110000000002,963.858,99.49811,20.95,12.149,5.959,37.61,14,3.45,112.6,813.89,0.0,0.064,0.0,0.1875
99,753.449,963.828,99.6911,21.01,12.313,6.313,38.4,14,3.45,117.2,813.87,0.0,-0.005,0.0,0.1876
100,756.7460000000002,964.684,99.88498,20.99,12.209,6.109,37.91,14,3.2,132.2,813.8539999999998,0.0,-0.027000000000000003,0.0,0.1872
101,759.8660000000001,965.673,100.07975,20.94,12.018,5.718,37.01,14,4.2,118.9,813.8380000000002,0.0,-0.125,0.0,0.1872
102,762.575,966.24,100.27545,20.8,12.011,5.811,37.57,16,3.2,139.2,813.8330000000002,0.0,-0.048,0.0,0.1865
103,764.62,965.783,100.47207,20.76,11.853,5.4529999999999985,36.74,14,2.45,134.9,813.829,0.0,-0.06,0.0,0.1859
104,766.7669999999998,965.476,100.66964,20.74,12.13,6.23,38.82,14,2.95,100.5,813.797,0.0,0.172,0.0,0.1858
105,770.326,967.528,100.86816,20.96,12.145,6.045,37.81,14,2.7,81.1,813.79,0.0,-0.104,0.0,0.1855
106,773.3660000000001,969.148,101.06766,21.15,12.398,6.497999999999998,38.56,12,2.45,106.2,813.784,0.0,0.061,0.0,0.1851
107,776.965,971.49,101.26813,21.2,11.821,5.021,34.7,12,3.45,130.7,813.765,0.0,-0.008,0.0,0.185
108,779.841,971.523,101.46961,20.93,11.799,5.199,35.72,11,2.7,119.3,813.7710000000002,0.0,-0.124,0.0,0.1845
109,782.53,971.425,101.6721,20.87,12.219,6.2189999999999985,38.48,11,2.2,126.9,813.757,0.0,0.18,0.0,0.1838
110,784.515,971.713,101.87562,21.07,11.935,5.435,36.0,10,3.7,128.7,813.743,0.0,0.079,0.0,0.1837
111,786.962,972.058,102.08019,21.02,11.696,4.896,34.78,8,2.45,109.0,813.727,0.0,0.002,0.0,0.1838
112,790.164,972.639,102.28581,20.91,11.849,5.349,36.14,10,3.7,119.7,813.717,0.0,0.156,0.0,0.1833
113,793.7389999999998,973.797,102.49251,20.88,11.57,4.67,34.53,10,3.45,129.9,813.7360000000001,0.0,-0.019,0.0,0.1831
114,796.0,973.849,102.7003,20.71,11.544,4.8439999999999985,35.32,10,1.7,152.9,813.743,0.0,0.015,0.0,0.1823
115,796.6260000000002,972.179,102.90919,20.79,11.843,5.542999999999998,36.9,11,1.7,150.7,813.732,0.0,0.141,0.0,0.1818
116,798.16,972.21,103.11921,21.0,11.885,5.305,35.83,10,2.2,120.5,813.7289999999998,0.0,0.183,0.0,0.1819
117,801.3889999999999,973.938,103.33036,21.21,11.911,5.211,35.14,10,2.7,112.9,813.7189999999998,0.0,0.083,0.0,0.1818
118,804.893,976.121,103.54267,21.36,11.898,5.038,34.4,10,2.2,87.2,813.7080000000002,0.0,-0.146,0.0,0.1817
119,807.885,977.776,103.75615,21.5,12.214,5.7139999999999995,35.75,9,1.2,109.8,813.7189999999998,0.0,0.135,0.0,0.1812
120,810.955,979.242,103.97083,21.69,11.866,4.766,33.08,10,3.2,108.9,813.709,0.0,0.107,0.0,0.1809
121,813.669,979.401,104.18671,21.68,11.717,4.417,32.3,10,3.2,132.4,813.7080000000002,0.0,-0.103,0.0,0.1808
122,815.822,978.501,104.40381,21.43,11.461,3.901,31.63,10,2.95,117.0,813.705,0.0,-0.121,0.0,0.1806
123,818.446,978.833,104.62216,21.23,11.478,4.2780000000000005,32.88,9,1.45,110.3,813.706,0.0,-0.055999999999999994,0.0,0.1798
124,820.172,977.839,104.84176,21.22,11.448,4.148,32.6,10,2.2,162.5,813.695,0.0,-0.13699999999999998,0.0,0.1791
125,822.057,977.406,105.06265,21.34,11.734000000000002,4.734,33.72,11,1.45,124.1,813.699,0.0,0.101,0.0,0.1789
126,825.125,979.468,105.28483,21.54,11.856,4.756,33.36,8,1.2,155.7,813.681,0.0,-0.08199999999999999,0.0,0.1785
127,826.717,980.293,105.50833,21.74,12.069,5.0889999999999995,33.73,10,2.95,127.8,813.666,0.0,0.138,0.0,0.1784
128,828.5219999999998,979.875,105.73317,21.89,11.76,4.26,31.54,10,2.2,140.8,813.67,0.0,0.043,0.0,0.1782
129,831.182,979.745,105.95937,21.89,11.783,4.283,31.59,9,2.45,126.5,813.66,0.0,-0.015,0.0,0.1781
130,834.1030000000002,979.802,106.18694,21.75,12.134,5.254,34.1,10,2.2,116.7,813.6519999999998,0.0,0.182,0.0,0.1776
131,836.4860000000001,979.8,106.4159,21.77,11.954,4.784,32.96,8,2.7,129.9,813.6610000000002,0.0,0.013,0.0,0.1773
132,838.948,980.324,106.64629,21.85,11.906,4.706,32.62,9,2.2,115.6,813.659,0.0,0.078,0.0,0.177
133,841.451,981.266,106.87811,21.9,12.323,5.553,34.5,11,2.95,99.8,813.6510000000002,0.0,0.258,0.0,0.1768
134,845.466,983.74,107.11139,22.08,12.219,5.2189999999999985,33.34,11,3.45,114.8,813.645,0.0,0.161,0.0,0.1766
135,848.808,985.525,107.34615,22.22,12.21,5.02,32.6,10,2.95,91.6,813.6439999999999,0.0,0.136,0.0,0.1764
136,850.914,984.92,107.58241,22.3,11.91,4.31,30.87,10,2.7,115.5,813.6469999999998,0.0,-0.08,0.0,0.1762
137,853.118,984.992,107.8202,22.22,11.797,4.0969999999999995,30.56,11,3.7,121.5,813.622,0.0,0.033,0.0,0.1761
138,855.81,985.279,108.05953,21.98,11.857,4.357,31.58,12,3.45,116.3,813.6189999999998,0.0,0.043,0.0,0.1756
139,858.97,986.163,108.30043,21.94,11.708,4.1080000000000005,31.11,12,3.7,100.2,813.632,0.0,0.105,0.0,0.1753
140,860.7410000000001,985.005,108.54293,22.0,11.576,3.776,30.28,11,2.95,88.7,813.6410000000002,0.0,0.065,0.0,0.175
141,861.45,983.281,108.78705,22.07,11.613,3.813,30.23,11,3.7,63.34,813.6289999999998,0.0,-0.232,0.0,0.1747
142,863.1010000000001,982.625,109.0328,22.19,12.268,5.167999999999998,33.0,13,3.45,100.6,813.6410000000002,0.0,0.236,0.0,0.1739
143,864.268,981.96,109.28022,22.3,12.343,5.343,33.18,14,3.2,104.5,813.6360000000002,0.0,0.154,0.0,0.1741
144,868.544,984.782,109.52933,22.35,11.952,4.252,30.65,15,3.95,93.8,813.632,0.0,-0.153,0.0,0.1738
145,869.533,983.122,109.78015,22.33,12.01,4.41,31.03,15,3.7,88.9,813.6260000000002,0.0,-0.019,0.0,0.1737
146,872.013,983.339,110.03271,22.34,11.956,4.266,30.7,14,2.95,82.4,813.633,0.0,-0.004,0.0,0.1735
147,875.15,984.644,110.28704,22.37,11.927,4.227,30.56,18,2.95,85.1,813.612,0.0,-0.059,0.0,0.1733
148,877.34,985.181,110.54316,22.35,12.014,4.5139999999999985,31.22,19,3.2,106.3,813.6160000000001,0.0,-0.038,0.0,0.1731
149,879.416,985.172,110.8011,22.22,12.069,4.669,31.81,21,1.45,95.9,813.613,0.0,-0.040999999999999995,0.0,0.1725
150,882.0239999999999,986.122,111.06088,22.26,12.192,4.922,32.3,20,3.2,97.3,813.6010000000001,0.0,0.095,0.0,0.1723
151,884.8969999999998,987.512,111.32254,22.33,12.128,4.728,31.73,20,3.95,101.6,813.586,0.0,0.097,0.0,0.1721
152,887.5239999999999,988.178,111.58608999999998,22.32,11.993,4.493,31.23,20,3.95,109.0,813.573,0.0,0.055999999999999994,0.0,0.172
153,890.0319999999998,988.978,111.85158,22.18,11.758,4.058,30.55,18,3.95,111.0,813.573,0.0,-0.033,0.0,0.1721
154,892.546,988.952,112.11902,22.06,11.79,4.19,31.06,16,2.95,100.8,813.574,0.0,0.145,0.0,0.1716
155,894.457,989.586,112.38845,22.07,11.553,3.653,29.89,15,3.7,111.5,813.566,0.0,0.116,0.0,0.1714
156,895.321,988.63,112.65989,22.08,11.594,3.614,29.79,16,3.7,105.5,813.567,0.0,0.245,0.0,0.171
157,896.847,987.87,112.93338,22.12,11.032,2.232,26.94,14,2.45,124.4,813.568,0.0,0.032,0.0,0.171
158,898.449,986.998,113.20895,22.05,11.434,3.3339999999999996,29.26,12,2.2,104.8,813.559,0.0,0.054000000000000006,0.0,0.1708
159,899.627,986.486,113.48662,22.03,11.618,3.718,30.1,14,2.2,158.6,813.552,0.0,-0.083,0.0,0.1703
160,902.148,988.187,113.76643,22.15,11.873,4.373,31.29,15,2.2,124.2,813.547,0.0,0.15,0.0,0.1701
161,906.117,990.979,114.04841,22.31,11.653,3.553,29.25,15,3.7,98.9,813.534,0.0,0.152,0.0,0.1702
162,908.6,990.994,114.33259,22.37,11.649,3.449,28.93,12,3.45,133.5,813.5360000000002,0.0,-0.018000000000000002,0.0,0.1702
163,910.061,989.305,114.61901,22.28,11.682,3.682,29.57,11,1.7,132.1,813.562,0.0,0.07,0.0,0.1695
164,911.312,987.705,114.90769,22.34,11.458,2.988,28.05,12,2.95,100.7,813.541,0.0,0.005,0.0,0.1695
165,913.707,987.015,115.19867,22.42,11.634,3.4339999999999997,28.81,13,1.95,99.0,813.535,0.0,0.019,0.0,0.1691
166,917.594,988.539,115.49199,22.53,11.394,2.7939999999999996,27.35,13,2.2,136.0,813.529,0.0,-0.104,0.0,0.1689
167,921.994,990.166,115.78768,22.52,12.073,4.413,30.68,14,1.45,78.56,813.513,0.0,0.251,0.0,0.1684
168,924.982,991.453,116.08577,22.72,11.61,3.11,27.65,12,3.95,97.3,813.495,0.0,0.135,0.0,0.1688
169,928.81,993.474,116.3863,22.73,11.14,1.74,25.06,12,4.7,117.0,813.495,0.0,0.008,0.0,0.1691
170,933.208,992.067,116.68931,22.47,11.050999999999998,1.751,25.48,14,1.95,129.3,813.5160000000002,0.0,-0.153,0.0,0.1684
171,938.52,989.999,116.99483,22.42,11.643,3.443,28.83,15,1.95,127.4,813.51,0.0,0.33,0.0,0.1677
172,939.888,987.489,117.3029,22.59,11.538,2.948,27.55,15,1.95,139.7,813.5010000000002,0.0,0.13699999999999998,0.0,0.1676
173,935.831,983.692,117.61355,22.66,11.577,2.977,27.49,13,2.45,131.9,813.492,0.0,0.075,0.0,0.1675
174,935.001,984.343,117.92683,22.66,11.844,3.674,28.88,12,3.95,113.9,813.4780000000002,0.0,0.14800000000000002,0.0,0.1676
175,936.325,984.268,118.24277,22.66,11.909,4.0089999999999995,29.57,13,3.95,95.6,813.492,0.0,0.2,0.0,0.1676
176,941.552,986.369,118.56141,22.78,11.667,3.167,27.66,14,1.95,69.23,813.485,0.0,0.001,0.0,0.1673
177,949.743,989.872,118.88279,22.82,11.732,3.242,27.74,16,2.95,71.97,813.4760000000001,0.0,0.034,0.0,0.1673
178,954.567,989.625,119.20695,22.9,11.49,2.49,26.17,16,2.95,77.27,813.4680000000002,0.0,0.214,0.0,0.1671
179,960.014,990.194,119.53393,23.05,11.553,2.553,26.05,16,4.7,102.7,813.471,0.0,0.208,0.0,0.1672
180,970.602,994.131,119.86378,23.15,11.296,1.796,24.53,17,3.7,109.9,813.4839999999998,0.0,0.05,0.0,0.1672
