Time [Mins],Global CMP22 (vent/cor) [W/m^2],Direct sNIP [W/m^2],Azimuth Angle [degrees],Tower Dry Bulb Temp [deg C],Tower Wet Bulb Temp [deg C],Tower Dew Point Temp [deg C],Tower RH [%],Total Cloud Cover [%],Peak Wind Speed @ 6ft [m/s],Avg Wind Direction @ 6ft [deg from N],Station Pressure [mBar],Precipitation (Accumulated) [mm],Snow Depth [cm],Moisture,Albedo (CMP11)
0,166.523,801.2510000000002,121.70593,8.69,0.022,-16.178,13.14,15,1.7,237.4,810.297,0.0,0.297,0.0,0.2759
1,169.503,805.09,121.88337,8.79,0.127,-16.073,13.18,15,1.2,184.0,810.2389999999998,0.0,0.28300000000000003,0.0,0.27399999999999997
2,173.02,810.3810000000002,122.0612,8.94,0.21600000000000005,-15.884,13.28,15,0.95,204.3,810.2230000000002,0.0,0.258,0.0,0.2715
3,176.113,813.7689999999999,122.23942,9.03,0.179,-16.121,12.91,14,0.95,228.4,810.273,0.0,0.218,0.0,0.26899999999999996
4,178.983,816.556,122.41804,9.13,0.284,-16.116,12.83,13,1.45,249.7,810.2810000000002,0.0,0.235,0.0,0.2661
5,181.982,819.68,122.59705,9.27,0.297,-16.703,12.03,15,0.45,101.5,810.212,0.0,0.268,0.0,0.2633
6,185.378,824.122,122.77646,9.51,0.4270000000000001,-16.673,11.87,15,1.45,155.5,810.1619999999998,0.0,0.232,0.0,0.2602
7,188.558,828.1010000000001,122.95627,9.62,0.459,-16.941,11.49,15,1.2,320.2,810.168,0.0,0.131,0.0,0.2571
8,191.88,832.533,123.13648,9.69,0.456,-16.844,11.54,13,0.95,292.2,810.217,0.0,0.161,0.0,0.2544
9,195.011,836.52,123.31711,9.71,0.535,-16.665,11.72,12,0.45,254.8,810.243,0.0,0.05,0.0,0.2519
10,198.268,840.377,123.49814,9.71,0.496,-16.404,12.01,12,1.2,247.9,810.2560000000002,0.0,0.116,0.0,0.25
11,201.439,844.1519999999998,123.67959,9.71,0.544,-16.656,11.73,13,1.2,222.8,810.2489999999998,0.0,0.18600000000000005,0.0,0.2483
12,204.399,846.705,123.86145,9.76,0.523,-16.377,12.0,12,0.0,0.0,810.2460000000002,0.0,0.221,0.0,0.2476
13,207.466,850.727,124.04372,9.92,0.6709999999999999,-15.929,12.38,13,0.0,0.0,810.2239999999998,0.0,0.21,0.0,0.2465
14,210.602,854.184,124.22642,10.11,0.841,-15.459,12.77,14,0.0,0.0,810.199,0.0,0.146,0.0,0.2452
15,213.519,857.105,124.40955,10.31,0.912,-15.788,12.22,13,0.0,0.0,810.2189999999998,0.0,0.135,0.0,0.244
16,216.707,860.567,124.59309,10.47,1.024,-16.076,11.77,15,0.0,0.0,810.2460000000002,0.0,0.16399999999999998,0.0,0.2432
17,220.019,864.1189999999998,124.77707,10.66,1.237,-15.063,12.77,16,1.95,97.3,810.2139999999998,0.0,0.161,0.0,0.2416
18,223.3,865.835,124.96148,10.85,1.618,-13.582,14.45,15,2.7,99.6,810.143,0.0,0.071,0.0,0.2386
19,227.069,868.32,125.14632,10.83,1.7519999999999998,-12.548,15.9,14,2.2,114.0,810.181,0.0,-0.001,0.0,0.2377
20,230.0,868.617,125.3316,10.6,1.731,-12.169,16.71,13,1.7,128.9,810.275,0.0,0.104,0.0,0.2383
21,233.254,870.676,125.51732,10.39,1.538,-12.652,16.22,14,1.95,129.0,810.262,0.0,-0.068,0.0,0.2362
22,236.977,875.314,125.70348,10.11,1.384,-12.616,16.58,12,1.95,95.7,810.2719999999998,0.0,0.048,0.0,0.2339
23,240.253,876.982,125.89008,10.07,1.359,-12.441,16.89,11,2.45,73.25,810.293,0.0,-0.141,0.0,0.2316
24,243.759,879.703,126.07713,9.97,1.291,-12.509,16.9,13,2.7,83.7,810.253,0.0,-0.204,0.0,0.2286
25,246.914,882.0189999999999,126.26463,9.85,1.216,-12.584,16.92,12,2.2,89.5,810.2689999999999,0.0,-0.039,0.0,0.2283
26,250.075,884.832,126.45258,9.87,1.268,-12.622,16.84,12,2.2,90.4,810.2639999999999,0.0,0.069,0.0,0.2295
27,253.121,888.055,126.64099,10.04,1.164,-13.736,15.04,13,0.95,122.3,810.2489999999998,0.0,-0.006,0.0,0.2314
28,256.392,891.5239999999999,126.82985,10.23,1.296,-13.204,15.59,13,0.95,87.0,810.258,0.0,0.13699999999999998,0.0,0.2308
29,259.45099999999996,894.6060000000001,127.01917,10.43,1.485,-13.015,15.65,12,1.45,92.5,810.262,0.0,0.14300000000000002,0.0,0.2302
30,262.066,896.192,127.20896,10.59,1.5930000000000002,-12.607,16.07,14,1.95,97.3,810.227,0.0,0.005,0.0,0.2294
31,265.505,899.518,127.3992,10.64,1.686,-12.414,16.3,14,2.2,114.7,810.2230000000002,0.0,0.033,0.0,0.2291
32,268.675,901.453,127.58992,10.39,1.56,-12.14,16.99,12,1.95,132.8,810.232,0.0,0.019,0.0,0.22899999999999998
33,271.73400000000004,903.817,127.78111,10.12,1.457,-11.943,17.61,12,1.2,131.4,810.2360000000001,0.0,-0.005,0.0,0.2289
34,274.775,905.183,127.97277,9.98,1.339,-12.161,17.43,12,1.7,116.3,810.202,0.0,0.145,0.0,0.2276
35,277.961,907.214,128.1649,9.92,1.157,-12.943,16.3,12,2.2,111.6,810.155,0.0,0.175,0.0,0.2264
36,281.173,910.468,128.35751000000002,9.86,1.186,-12.714,16.71,12,1.95,112.0,810.1489999999999,0.0,0.214,0.0,0.2264
37,284.302,912.438,128.5506,9.77,1.172,-12.728,16.79,12,2.2,98.8,810.1139999999998,0.0,0.179,0.0,0.226
38,287.182,913.458,128.74418,9.71,1.037,-13.363,15.91,13,2.2,96.0,810.0930000000002,0.0,0.07400000000000001,0.0,0.2244
39,290.313,915.299,128.93823,9.72,0.972,-13.328,15.95,14,1.95,105.0,810.128,0.0,0.109,0.0,0.2247
40,293.3959999999999,916.932,129.13278,9.7,1.075,-13.025,16.42,14,2.2,99.3,810.1339999999999,0.0,0.18,0.0,0.2244
41,296.485,919.664,129.32781,9.72,1.122,-12.778,16.77,14,1.45,91.2,810.1389999999999,0.0,0.271,0.0,0.225
42,299.553,921.894,129.52334,9.87,1.179,-13.021,16.24,15,1.7,75.25,810.166,0.0,0.201,0.0,0.2254
43,302.202,923.484,129.71936000000002,10.02,1.29,-12.61,16.69,15,1.45,87.7,810.173,0.0,0.207,0.0,0.225
44,304.9459999999999,924.881,129.91586999999998,10.19,1.416,-12.584,16.54,16,2.2,89.9,810.1339999999999,0.0,0.087,0.0,0.2243
45,308.315,927.934,130.11289,10.25,1.459,-12.341,16.84,14,1.95,94.1,810.1289999999998,0.0,0.021,0.0,0.2236
46,311.298,930.187,130.3104,10.23,1.507,-12.193,17.09,14,1.7,72.67,810.153,0.0,-0.025,0.0,0.2234
47,314.4840000000001,932.036,130.50842,10.2,1.675,-11.325,18.52,15,1.7,81.7,810.1560000000002,0.0,0.067,0.0,0.223
48,317.3520000000001,934.169,130.70695,10.29,1.608,-11.692,17.81,15,1.95,99.5,810.1289999999998,0.0,0.119,0.0,0.2228
49,320.791,936.511,130.90598,10.3,1.533,-12.167,17.05,15,2.45,102.7,810.1189999999998,0.0,0.107,0.0,0.2221
50,323.688,937.787,131.10553000000002,10.13,1.461,-12.139,17.29,15,2.7,87.2,810.1510000000002,0.0,0.095,0.0,0.2218
51,326.171,937.234,131.30558,10.11,1.462,-11.838,17.79,15,2.95,86.8,810.1569999999998,0.0,0.07,0.0,0.2212
52,329.017,936.626,131.50615,10.17,1.5630000000000002,-11.837,17.72,14,2.45,80.1,810.1389999999999,0.0,0.054000000000000006,0.0,0.2205
53,329.858,932.14,131.70723999999998,10.2,1.6,-11.5,18.23,14,2.7,72.94,810.1389999999999,0.0,0.043,0.0,0.22
54,332.159,931.738,131.90885,10.16,1.625,-11.475,18.32,12,2.95,95.0,810.12,0.0,0.040999999999999995,0.0,0.2207
55,335.267,932.809,132.11098,10.02,1.401,-12.099,17.48,12,2.2,125.3,810.158,0.0,0.135,0.0,0.2211
56,336.668,929.236,132.31363000000002,9.85,1.403,-11.597,18.5,14,1.7,197.4,810.245,0.0,0.368,0.0,0.2213
57,344.4869999999999,947.844,132.51681000000002,9.71,1.469,-11.031,19.65,14,1.7,224.9,810.2860000000002,0.0,0.161,0.0,0.2222
58,347.6219999999999,951.48,132.72051000000002,9.51,1.183,-11.917,18.39,13,1.45,255.5,810.253,0.0,0.04,0.0,0.2217
59,350.539,954.298,132.92475,9.33,1.163,-11.637,19.09,13,3.2,54.49,810.153,0.0,0.244,0.0,0.22
60,353.414,955.795,133.12952,9.13,0.956,-11.944,18.82,14,3.45,57.24,810.132,0.0,0.256,0.0,0.2182
61,356.316,956.155,133.33482,8.84,0.722,-12.178,18.79,14,2.7,68.03,810.16,0.0,0.3670000000000001,0.0,0.21899999999999997
62,358.907,957.242,133.54065,8.85,0.8390000000000001,-11.961,19.15,15,2.45,82.9,810.1569999999998,0.0,0.478,0.0,0.22
63,361.202,957.39,133.74703,9.08,0.912,-12.088,18.64,15,2.7,85.2,810.1289999999998,0.0,0.415,0.0,0.2196
64,364.408,959.133,133.95395,9.33,0.8640000000000001,-12.936,16.97,13,2.7,109.5,810.133,0.0,0.586,0.0,0.2203
65,367.682,962.057,134.1614,9.62,1.229,-12.171,17.84,13,3.2,122.1,810.1260000000002,0.0,0.61,0.0,0.2215
66,369.694,961.242,134.3694,9.89,1.293,-12.107,17.62,13,1.95,114.1,810.123,0.0,0.598,0.0,0.2222
67,371.7519999999999,959.934,134.57795,10.16,1.615,-11.585,18.14,13,1.7,120.4,810.148,0.0,0.654,0.0,0.223
68,373.13199999999995,955.749,134.78704,10.35,1.763,-11.237,18.48,14,2.45,127.6,810.1510000000002,0.0,0.396,0.0,0.2226
69,368.76,935.584,134.99669,10.35,1.723,-11.177,18.58,14,1.95,145.0,810.166,0.0,0.5379999999999999,0.0,0.2223
70,366.769,921.709,135.20688,10.34,1.676,-11.624,17.86,13,1.7,128.0,810.188,0.0,0.362,0.0,0.221
71,365.698,912.047,135.41763,10.33,1.6130000000000002,-12.087,17.14,13,1.7,103.6,810.195,0.0,0.33299999999999996,0.0,0.2199
72,367.809,911.651,135.62893,10.39,1.554,-12.146,16.98,12,0.95,99.2,810.197,0.0,0.362,0.0,0.2192
73,373.32,924.378,135.84079,10.54,1.662,-11.938,17.13,13,0.45,139.2,810.2410000000001,0.0,0.275,0.0,0.2197
74,377.732,934.528,136.05321,10.61,1.672,-12.128,16.76,16,0.0,0.0,810.275,0.0,0.193,0.0,0.2202
75,387.50699999999995,958.056,136.26619,10.7,1.78,-11.82,17.13,15,0.0,0.0,810.2769999999998,0.0,0.229,0.0,0.2197
76,394.029,970.194,136.47973000000002,10.71,1.899,-11.601,17.46,15,0.95,165.8,810.2769999999998,0.0,0.306,0.0,0.2193
77,396.354,970.616,136.69383,10.73,1.896,-11.504,17.59,14,1.95,159.7,810.2439999999998,0.0,0.364,0.0,0.2187
78,399.585,972.3,136.90849,10.72,1.853,-11.747,17.22,14,1.2,142.1,810.235,0.0,0.27,0.0,0.2182
79,403.07,974.342,137.12373,10.76,1.936,-11.564,17.46,13,0.7,106.5,810.23,0.0,0.256,0.0,0.2176
80,406.51199999999994,977.55,137.33953,10.89,1.917,-11.583,17.28,12,0.7,101.6,810.238,0.0,0.267,0.0,0.2172
81,410.599,982.222,137.5559,11.03,2.0269999999999997,-11.773,16.83,14,1.45,114.2,810.198,0.0,0.325,0.0,0.2169
82,413.63699999999994,982.22,137.77284,11.08,2.142,-11.258,17.57,17,2.95,129.9,810.1519999999998,0.0,0.395,0.0,0.2164
83,404.652,951.888,137.99035,10.99,2.123,-10.877,18.29,15,1.7,150.8,810.186,0.0,0.458,0.0,0.2154
84,402.148,944.554,138.20844,10.95,2.044,-11.456,17.41,12,1.7,146.7,810.2,0.0,0.5529999999999999,0.0,0.2153
85,416.679,976.798,138.4271,10.88,2.121,-10.879,18.42,14,1.95,154.8,810.192,0.0,0.453,0.0,0.2156
86,420.725,981.683,138.64633,10.83,2.014,-11.186,17.98,16,2.7,145.7,810.1669999999998,0.0,0.417,0.0,0.2151
87,423.432,983.412,138.86615,10.81,2.125,-10.775,18.68,16,3.45,140.3,810.06,0.0,0.509,0.0,0.2147
88,426.343,983.898,139.08654,10.7,1.99,-11.11,18.26,15,3.7,134.3,810.0060000000002,0.0,0.579,0.0,0.214
89,428.989,984.42,139.30751999999998,10.75,2.215,-10.185,19.77,14,2.2,158.8,810.06,0.0,0.624,0.0,0.2145
90,431.298,985.447,139.52907,10.98,2.211,-10.589,18.78,14,0.45,227.9,810.135,0.0,0.326,0.0,0.2147
91,434.031,988.013,139.75121,11.1,2.29,-10.71,18.43,14,0.95,93.2,810.17,0.0,0.243,0.0,0.2146
92,433.63199999999995,982.574,139.97393,11.27,2.334,-10.866,17.97,16,1.7,163.2,810.105,0.0,0.337,0.0,0.214
93,436.054,984.566,140.19723,11.35,2.344,-11.046,17.59,14,1.45,149.8,810.052,0.0,0.389,0.0,0.2136
94,439.911,989.969,140.42112,11.38,2.378,-10.822,17.91,14,1.2,154.0,810.087,0.0,0.393,0.0,0.2136
95,439.842,986.214,140.64559,11.43,2.222,-11.478,16.83,15,0.95,200.0,810.127,0.0,0.301,0.0,0.2131
96,443.48800000000006,989.971,140.87066000000004,11.32,2.214,-11.586,16.79,15,1.2,171.4,810.1110000000001,0.0,0.273,0.0,0.2125
97,446.458,991.188,141.0963,11.23,2.094,-11.606,16.86,15,1.95,125.1,810.065,0.0,0.3670000000000001,0.0,0.2115
98,449.481,992.922,141.32254,11.16,2.07,-11.83,16.6,13,1.7,109.2,810.064,0.0,0.458,0.0,0.2111
99,452.334,995.333,141.54936999999995,11.26,2.149,-11.550999999999998,16.91,13,1.7,120.5,810.066,0.0,0.4320000000000001,0.0,0.21100000000000002
100,454.654,996.774,141.77678999999995,11.33,2.263,-11.137,17.47,15,1.2,142.7,810.082,0.0,0.512,0.0,0.2111
101,456.4380000000001,996.83,142.0048,11.44,2.267,-11.333,17.04,15,1.2,165.2,810.0989999999998,0.0,0.409,0.0,0.2111
102,458.445,997.183,142.2334,11.51,2.266,-11.734000000000002,16.36,15,0.95,134.5,810.0930000000002,0.0,0.425,0.0,0.21100000000000002
103,460.125,996.883,142.46258999999995,11.6,2.3409999999999997,-11.459,16.67,14,0.45,171.3,810.062,0.0,0.491,0.0,0.21100000000000002
104,462.231,997.813,142.69238,11.67,2.444,-10.956,17.36,14,1.7,171.1,810.0419999999998,0.0,0.468,0.0,0.2107
105,464.693,997.997,142.92275,11.7,2.498,-10.902,17.41,16,1.45,156.1,810.057,0.0,0.484,0.0,0.2106
106,466.6869999999999,998.687,143.15372,11.73,2.435,-11.165,16.97,16,0.0,0.0,810.078,0.0,0.373,0.0,0.2108
107,469.335,1001.31,143.38529,11.78,2.486,-11.414,16.54,15,0.0,0.0,810.082,0.0,0.327,0.0,0.2105
108,471.481,1003.05,143.61745,11.85,2.589,-10.811,17.38,17,0.0,0.0,810.0880000000002,0.0,0.311,0.0,0.2104
109,473.69199999999995,1004.5,143.8502,11.98,2.5789999999999997,-11.321,16.46,18,0.95,88.7,810.065,0.0,0.397,0.0,0.2102
110,476.4369999999999,1007.09,144.08355,12.2,2.775,-10.925,16.81,16,2.45,122.8,810.043,0.0,0.491,0.0,0.2094
111,479.542,1009.82,144.3175,12.18,2.637,-11.263,16.33,16,2.45,133.4,810.059,0.0,0.43,0.0,0.2091
112,482.253,1010.68,144.55203,11.99,2.5789999999999997,-11.511,16.17,16,1.95,129.2,810.0830000000002,0.0,0.39,0.0,0.2085
113,484.907,1011.1,144.78717,11.91,2.467,-11.433,16.37,16,1.2,154.6,810.074,0.0,0.469,0.0,0.209
114,487.133,1011.26,145.0229,11.92,2.602,-11.098,16.86,16,3.2,135.4,810.0369999999998,0.0,0.529,0.0,0.209
115,489.48800000000006,1012.12,145.25922,12.04,2.6639999999999997,-11.136,16.67,16,2.45,125.9,810.038,0.0,0.599,0.0,0.2088
116,492.1880000000001,1013.22,145.49614,12.22,2.768,-11.132,16.48,16,1.45,154.4,810.0880000000002,0.0,0.502,0.0,0.2091
117,494.029,1013.65,145.73365,12.39,2.928,-10.772,16.83,16,2.2,137.6,810.0939999999998,0.0,0.52,0.0,0.2092
118,495.516,1012.78,145.97176000000005,12.51,2.741,-11.659,15.42,15,2.2,156.3,810.066,0.0,0.415,0.0,0.2089
119,497.435,1013.03,146.21046,12.48,2.85,-11.05,16.32,14,1.7,143.0,810.059,0.0,0.504,0.0,0.2088
120,499.653,1015.02,146.44976,12.57,2.8989999999999996,-11.101,16.15,15,2.45,141.4,810.055,0.0,0.627,0.0,0.2086
121,501.671,1015.64,146.68965,12.62,2.759,-11.841,15.06,16,2.45,141.0,810.065,0.0,0.395,0.0,0.20800000000000002
122,504.0630000000001,1016.46,146.93013,12.53,2.785,-11.515,15.6,15,2.2,136.3,810.081,0.0,0.42,0.0,0.2079
123,506.349,1017.38,147.17121,12.48,2.713,-11.987,15.0,14,2.2,122.5,810.0419999999998,0.0,0.493,0.0,0.207
124,508.727,1017.88,147.41287,12.42,2.823,-11.377,15.91,14,2.2,141.2,810.0089999999999,0.0,0.645,0.0,0.2069
125,510.957,1019.04,147.65513,12.45,2.931,-10.869000000000002,16.62,13,3.45,126.3,809.9780000000002,0.0,0.7340000000000001,0.0,0.2067
126,513.443,1019.4,147.89798000000005,12.59,2.9,-11.1,16.13,16,3.2,146.2,809.9739999999998,0.0,0.657,0.0,0.207
127,515.5169999999998,1019.62,148.14141999999995,12.6,2.875,-11.225,15.94,18,1.95,152.9,810.0160000000002,0.0,0.634,0.0,0.2071
128,517.342,1020.3,148.38545,12.65,2.864,-11.336,15.73,16,2.2,163.4,810.008,0.0,0.602,0.0,0.2071
129,519.111,1021.03,148.63006,12.68,3.093,-10.707,16.61,15,2.2,161.8,810.0269999999998,0.0,0.754,0.0,0.2071
130,520.51,1020.77,148.87527,12.87,3.097,-10.703,16.41,16,2.2,146.5,810.039,0.0,0.727,0.0,0.2071
131,522.234,1021.24,149.12105,13.03,3.2430000000000003,-10.757,16.16,18,2.95,130.1,810.047,0.0,0.8590000000000001,0.0,0.2071
132,524.444,1022.98,149.36743,13.11,3.227,-10.873,15.91,19,2.7,132.3,810.068,0.0,0.539,0.0,0.2068
133,526.72,1024.44,149.61439,13.1,3.06,-11.64,14.86,20,2.7,127.7,810.061,0.0,0.361,0.0,0.2062
134,529.013,1025.0,149.86193,12.92,2.987,-11.513,15.21,19,2.45,147.4,810.053,0.0,0.47,0.0,0.2058
135,531.015,1025.29,150.11005,12.85,3.1,-11.0,16.0,20,2.95,135.7,810.0210000000002,0.0,0.716,0.0,0.2056
136,532.6030000000002,1025.13,150.35875,12.81,3.0869999999999997,-10.713,16.46,18,2.95,138.5,810.033,0.0,0.74,0.0,0.2055
137,534.569,1025.51,150.60803,12.89,3.092,-10.908,16.09,16,2.45,140.1,810.035,0.0,0.66,0.0,0.2054
138,536.202,1025.84,150.85788,12.89,3.0610000000000004,-11.339,15.48,18,2.45,128.6,810.0189999999999,0.0,0.578,0.0,0.2052
139,538.793,1026.69,151.10831000000005,12.75,2.878,-11.622,15.23,19,1.95,148.4,810.0010000000002,0.0,0.509,0.0,0.2049
140,540.544,1027.05,151.35932,12.69,3.159,-10.341,17.15,20,1.95,145.8,809.982,0.0,0.7609999999999999,0.0,0.2052
141,542.087,1027.63,151.61088999999996,12.92,3.11,-10.79,16.23,20,2.45,157.1,809.995,0.0,0.747,0.0,0.2051
142,543.938,1028.84,151.86303999999996,12.94,3.0980000000000003,-11.202,15.62,22,1.7,143.8,809.992,0.0,0.624,0.0,0.2051
143,545.13,1027.63,152.11575,12.99,3.111,-10.989,15.87,21,2.2,146.8,809.988,0.0,0.659,0.0,0.205
144,546.535,1027.2,152.36903,13.08,3.339,-10.461,16.54,21,1.95,150.3,810.008,0.0,0.6940000000000001,0.0,0.2049
145,547.88,1027.86,152.62288,13.22,3.178,-11.222,15.31,20,2.2,146.6,810.0160000000002,0.0,0.596,0.0,0.2048
146,550.109,1029.96,152.87729,13.28,3.4539999999999997,-10.146,16.79,20,1.95,137.3,810.0189999999999,0.0,0.669,0.0,0.2051
147,552.2719999999998,1031.52,153.13225,13.44,3.2460000000000004,-11.454,14.78,22,1.95,142.6,810.0160000000002,0.0,0.453,0.0,0.2048
148,554.121,1031.99,153.38778,13.34,3.138,-11.762,14.47,22,2.7,106.9,809.992,0.0,0.513,0.0,0.204
149,555.626,1031.53,153.64386000000005,13.24,3.273,-11.127,15.42,22,2.2,116.1,809.9689999999998,0.0,0.595,0.0,0.2036
150,557.284,1032.09,153.90049,13.27,3.3360000000000003,-10.764,15.9,23,2.7,104.9,809.939,0.0,0.7120000000000001,0.0,0.2036
151,558.899,1032.3,154.15767,13.4,3.536,-10.254,16.5,23,3.2,100.8,809.928,0.0,0.64,0.0,0.2035
152,560.962,1033.21,154.4154,13.44,3.452,-10.548,16.03,23,2.95,108.9,809.916,0.0,0.688,0.0,0.2038
153,563.096,1034.25,154.67368000000005,13.49,3.367,-11.033,15.3,24,3.95,111.2,809.9119999999998,0.0,0.6,0.0,0.2038
154,564.722,1034.99,154.93249,13.43,3.273,-11.327,14.96,25,3.7,122.6,809.898,0.0,0.619,0.0,0.2036
155,566.732,1036.33,155.19185,13.29,3.2880000000000003,-11.012,15.53,23,2.7,109.3,809.918,0.0,0.759,0.0,0.2038
156,568.384,1037.04,155.45175,13.38,3.339,-10.761,15.79,23,2.95,104.4,809.932,0.0,0.774,0.0,0.2039
157,569.5880000000002,1037.11,155.71217,13.51,3.383,-10.917,15.44,22,3.7,124.1,809.918,0.0,0.718,0.0,0.2042
158,571.5169999999998,1037.9,155.97313,13.49,3.23,-11.87,14.19,21,3.95,117.7,809.904,0.0,0.59,0.0,0.2035
159,573.302,1038.72,156.23462,13.33,3.3160000000000003,-11.084,15.39,21,3.7,108.0,809.887,0.0,0.789,0.0,0.2037
160,575.269,1040.04,156.49663,13.43,3.2880000000000003,-11.312,14.98,21,3.95,121.8,809.846,0.0,0.8240000000000001,0.0,0.204
161,576.964,1040.53,156.75916,13.44,3.195,-11.805,14.32,21,2.95,133.5,809.846,0.0,0.6990000000000001,0.0,0.204
162,578.023,1039.99,157.02221,13.44,3.38,-11.12,15.23,21,3.95,129.8,809.824,0.0,0.79,0.0,0.2041
163,579.312,1039.83,157.28578000000005,13.51,3.3819999999999997,-11.018,15.3,22,3.95,130.5,809.811,0.0,0.812,0.0,0.2041
164,580.702,1040.54,157.54985,13.59,3.4330000000000003,-10.967,15.29,21,4.2,130.4,809.823,0.0,0.8240000000000001,0.0,0.2042
165,582.653,1041.9,157.81444,13.65,3.599,-10.201,16.31,20,2.45,143.0,809.862,0.0,0.758,0.0,0.2043
166,583.495,1041.08,158.07952,13.79,3.549,-11.050999999999998,14.98,19,3.45,131.1,809.865,0.0,0.623,0.0,0.2043
167,584.653,1041.15,158.34511,13.79,3.5010000000000003,-10.999,15.05,19,2.7,136.1,809.883,0.0,0.716,0.0,0.2042
168,586.567,1042.17,158.61119,13.89,3.633,-10.867,15.13,20,3.2,129.6,809.8639999999998,0.0,0.72,0.0,0.2043
169,587.863,1042.31,158.87776000000005,13.82,3.357,-12.143,13.55,18,3.7,135.4,809.857,0.0,0.585,0.0,0.2034
170,589.146,1041.89,159.14483,13.63,3.2230000000000003,-12.077,13.8,17,3.2,137.3,809.8580000000002,0.0,0.604,0.0,0.203
171,590.552,1041.99,159.41238,13.51,3.2460000000000004,-11.654000000000002,14.45,15,3.7,140.4,809.8539999999998,0.0,0.688,0.0,0.2028
172,591.4540000000002,1041.11,159.6804,13.53,3.187,-12.213,13.72,15,4.95,135.8,809.824,0.0,0.6579999999999999,0.0,0.2023
173,593.061,1041.79,159.94891,13.45,3.2539999999999996,-11.836,14.27,16,3.2,129.9,809.8380000000002,0.0,0.68,0.0,0.2023
174,594.659,1042.67,160.21788,13.51,3.284,-11.616,14.5,18,4.2,133.4,809.817,0.0,0.7190000000000001,0.0,0.2025
175,596.01,1042.66,160.48731999999995,13.54,3.32,-11.48,14.65,17,4.2,130.7,809.796,0.0,0.8240000000000001,0.0,0.2023
176,597.452,1042.7,160.75723,13.65,3.463,-11.137,15.0,16,3.95,143.2,809.778,0.0,0.774,0.0,0.2027
177,598.35,1042.33,161.02759,13.76,3.425,-11.275,14.71,14,3.2,137.9,809.784,0.0,0.7859999999999999,0.0,0.2027
178,599.808,1042.93,161.2984,13.86,3.505,-11.595,14.2,13,3.7,132.8,809.752,0.0,0.741,0.0,0.2026
179,601.448,1043.82,161.56967,13.88,3.395,-11.905,13.79,13,4.2,139.4,809.742,0.0,0.593,0.0,0.2023
