Time [Mins],Global CMP22 (vent/cor) [W/m^2],Direct sNIP [W/m^2],Azimuth Angle [degrees],Tower Dry Bulb Temp [deg C],Tower Wet Bulb Temp [deg C],Tower Dew Point Temp [deg C],Tower RH [%],Total Cloud Cover [%],Peak Wind Speed @ 6ft [m/s],Avg Wind Direction @ 6ft [deg from N],Station Pressure [mBar],Precipitation (Accumulated) [mm],Snow Depth [cm],Moisture,Albedo (CMP11)
0,247.31,1.60499,108.01859,18.67,14.702,12.532,67.48,99,1.7,72.94,814.664,0.0,-0.275,0.0,0.2112
1,248.658,1.78388,108.26738,18.67,14.707,12.527,67.46,99,2.45,31.85,814.676,0.0,-0.32799999999999996,0.0,0.2105
2,256.8,1.6944400000000002,108.51798,18.67,14.675,12.475,67.23,99,3.7,38.28,814.658,0.0,-0.317,0.0,0.2085
3,262.018,1.35654,108.77041,18.55,14.587,12.397,67.39,99,3.2,39.09,814.6669999999998,0.0,-0.301,0.0,0.2051
4,254.782,1.11306,109.02471,18.46,14.58,12.48,68.14,99,2.95,36.47,814.683,0.0,-0.244,0.0,0.2051
5,252.856,0.809951,109.28089,18.39,14.544,12.444,68.28,99,2.95,27.2,814.682,0.0,-0.33299999999999996,0.0,0.2037
6,251.832,0.447212,109.539,18.39,14.489,12.389,68.03,98,2.95,16.52,814.683,0.0,-0.394,0.0,0.2033
7,248.437,0.268327,109.79907,18.3,14.49,12.39,68.42,98,2.45,21.11,814.687,0.0,-0.321,0.0,0.2036
8,245.24400000000003,0.19876,110.06111,18.2,14.467,12.387,68.84,98,1.95,23.61,814.689,0.0,-0.295,0.0,0.2036
9,248.932,0.243481,110.32518,18.18,14.415,12.415,69.05,99,2.95,40.99,814.701,0.0,-0.213,0.0,0.204
10,263.58099999999996,0.561497,110.59129,18.21,14.486,12.425999999999998,68.97,98,2.45,40.88,814.7139999999998,0.0,-0.13699999999999998,0.0,0.2055
11,287.436,0.934171,110.85948,18.25,14.42,12.32,68.32,99,3.2,31.21,814.716,0.0,-0.331,0.0,0.2076
12,303.436,0.944109,111.12978,18.28,14.390999999999998,12.220999999999998,67.75,99,2.7,4.738,814.7280000000002,0.0,-0.395,0.0,0.2073
13,326.553,1.14784,111.40223,18.23,14.401,12.300999999999998,68.32,99,1.95,14.57,814.7189999999998,0.0,-0.26899999999999996,0.0,0.2078
14,357.145,1.36151,111.67687,18.21,14.317,12.217,68.03,99,2.7,19.08,814.722,0.0,-0.25,0.0,0.2084
15,379.806,1.89816,111.95371000000002,18.2,14.372,12.272,68.32,98,1.95,36.88,814.709,0.0,-0.14400000000000002,0.0,0.2075
16,404.755,2.4546900000000003,112.23281,18.3,14.548,12.478,68.82,99,2.7,48.15,814.686,0.0,0.006999999999999999,0.0,0.2086
17,431.406,5.05845,112.5142,18.61,14.528,12.268,66.57,98,2.2,18.79,814.685,0.0,-0.14300000000000002,0.0,0.2157
18,461.703,6.9168699999999985,112.7979,18.85,14.52,12.12,64.94,98,2.45,25.37,814.668,0.0,-0.217,0.0,0.2141
19,494.749,7.8311899999999985,113.08397,18.92,14.616,12.226,65.11,99,2.7,23.86,814.6439999999999,0.0,-0.275,0.0,0.2116
20,523.274,7.120610000000001,113.37243,18.97,14.685,12.315,65.29,98,2.45,33.99,814.6360000000002,0.0,-0.327,0.0,0.2094
21,532.4680000000002,4.53175,113.66334,19.13,14.708,12.308,64.61,98,2.7,19.74,814.627,0.0,-0.349,0.0,0.2009
22,510.723,3.63732,113.95671000000002,19.26,14.805,12.405,64.5,98,2.45,30.9,814.6239999999998,0.0,-0.232,0.0,0.1997
23,468.81699999999995,3.61248,114.2526,19.47,14.789,12.289,63.18,98,3.45,46.67,814.618,0.0,-0.175,0.0,0.2022
24,448.095,3.58267,114.55104,19.5,14.765,12.165,62.55,98,2.7,26.4,814.618,0.0,-0.395,0.0,0.2043
25,436.217,3.57769,114.85208,19.36,14.74,12.24,63.41,97,2.95,12.64,814.6110000000001,0.0,-0.4370000000000001,0.0,0.2019
26,407.104,3.50812,115.15576,19.26,14.748,12.348,64.26,97,3.2,47.68,814.5989999999998,0.0,-0.187,0.0,0.1986
27,364.179,3.44352,115.46211,19.3,14.691,12.191,63.44,96,2.7,25.9,814.62,0.0,-0.361,0.0,0.1961
28,338.077,3.10563,115.77118,19.39,14.720999999999998,12.140999999999998,62.88,96,2.95,29.09,814.622,0.0,-0.35100000000000003,0.0,0.195
29,328.2030000000001,2.9665,116.08302,19.43,14.702,12.102,62.56,96,3.2,50.0,814.62,0.0,-0.173,0.0,0.1951
30,328.22,2.69818,116.39766000000002,19.42,14.795,12.295,63.4,95,4.2,53.53,814.613,0.0,-0.201,0.0,0.1957
31,334.914,2.53421,116.71516,19.32,14.829,12.369000000000002,64.11,96,3.7,47.12,814.622,0.0,-0.246,0.0,0.1963
32,351.8830000000001,2.57396,117.03555,19.26,14.762,12.282,63.98,95,2.45,22.72,814.6489999999999,0.0,-0.43,0.0,0.19699999999999998
33,385.532,2.6435299999999997,117.35889,19.24,14.733,12.253,63.94,95,1.95,14.73,814.6619999999998,0.0,-0.34700000000000003,0.0,0.1973
34,438.119,3.26465,117.68522,19.22,14.724,12.244000000000002,63.98,95,1.7,24.15,814.659,0.0,-0.33299999999999996,0.0,0.196
35,488.986,4.6063,118.01458999999998,19.24,14.608,12.108,63.33,97,3.2,14.69,814.66,0.0,-0.27,0.0,0.1933
36,515.894,3.72677,118.34704,19.28,14.66,12.09,63.1,97,3.95,31.08,814.66,0.0,-0.226,0.0,0.1909
37,501.131,3.91062,118.68262,19.29,14.63,12.04,62.85,96,2.95,15.2,814.7,0.0,-0.442,0.0,0.1895
38,462.336,3.66714,119.02139,19.23,14.692,12.192,63.72,95,2.2,20.4,814.716,0.0,-0.226,0.0,0.1903
39,423.609,4.4621699999999995,119.3634,19.26,14.602,12.002,62.81,95,2.2,25.68,814.7460000000002,0.0,-0.138,0.0,0.1912
40,365.934,3.46835,119.70868,19.42,14.619000000000002,12.019,62.26,93,2.2,23.78,814.7719999999998,0.0,-0.243,0.0,0.1922
41,310.89,2.84724,120.0573,19.5,14.66,12.06,62.12,93,2.95,16.52,814.809,0.0,-0.337,0.0,0.1915
42,268.264,2.24102,120.40931,19.45,14.799,12.299,63.3,93,3.95,26.94,814.847,0.0,-0.239,0.0,0.1911
43,230.39,1.94288,120.76476,19.32,14.786,12.386,64.18,93,2.95,20.76,814.888,0.0,-0.309,0.0,0.1907
44,197.232,1.36151,121.12371,19.23,14.847,12.447,64.8,90,3.45,31.21,814.89,0.0,-0.33,0.0,0.19
45,178.65900000000005,0.884481,121.4862,19.13,14.789,12.409,65.04,92,2.7,20.43,814.944,0.0,-0.203,0.0,0.1878
46,174.636,0.496899,121.85229,19.12,14.75,12.35,64.83,93,1.45,38.14,814.953,0.0,-0.258,0.0,0.1859
47,183.213,0.064597,122.22204,19.19,14.71,12.31,64.38,93,2.95,14.57,814.945,0.0,-0.31,0.0,0.1848
48,197.208,-0.144101,122.5955,19.21,14.812,12.412,64.73,94,3.2,23.46,814.929,0.0,-0.325,0.0,0.1845
49,215.127,-0.377644,122.97273,19.09,14.777,12.417,65.24,94,4.45,31.04,814.9010000000002,0.0,-0.34,0.0,0.185
50,239.375,-0.571435,123.35379,18.96,14.719,12.419,65.78,94,4.45,20.48,814.903,0.0,-0.34,0.0,0.1839
51,257.622,-0.636034,123.73873,18.77,14.691,12.491,66.88,94,4.45,16.81,814.8860000000002,0.0,-0.272,0.0,0.1829
52,264.325,-0.447211,124.12761,18.68,14.628,12.428,66.98,95,3.95,22.91,814.867,0.0,-0.16899999999999998,0.0,0.1831
53,286.368,-0.19876,124.5205,18.69,14.574000000000002,12.374,66.7,93,3.7,34.11,814.845,0.0,-0.21899999999999994,0.0,0.1846
54,333.37,-0.0049689999999999995,124.91743999999998,18.71,14.579,12.379,66.64,93,3.95,20.87,814.822,0.0,-0.224,0.0,0.1877
55,408.98800000000006,2.16649,125.3185,18.72,14.577,12.377,66.59,94,4.45,15.62,814.818,0.0,-0.116,0.0,0.1914
56,499.997,3.74167,125.72375,18.8,14.646,12.345999999999998,66.12,97,3.7,24.04,814.783,0.0,-0.151,0.0,0.1954
57,564.566,7.9107,126.13323,18.92,14.796,12.536,66.45,97,4.2,15.49,814.737,0.0,-0.214,0.0,0.1958
58,862.3539999999998,254.951,126.54702,19.04,14.863,12.583,66.16,95,4.7,28.9,814.706,0.0,-0.085,0.0,0.1952
59,1111.64,408.911,126.96517,19.17,14.884,12.584,65.63,96,5.2,22.47,814.645,0.0,-0.171,0.0,0.2255
60,1151.28,512.881,127.38774,19.22,14.929,12.629,65.62,94,4.95,18.18,814.643,0.0,0.03,0.0,0.2195
61,825.357,149.91,127.8148,19.34,14.964,12.584,64.94,95,5.45,24.32,814.625,0.0,0.044,0.0,0.1627
62,639.124,47.6677,128.24641,19.45,15.022,12.632,64.7,93,4.95,44.06,814.632,0.0,-0.125,0.0,0.1769
63,536.84,7.67713,128.68263000000002,19.49,15.039,12.639,64.57,92,4.45,35.94,814.6610000000002,0.0,-0.135,0.0,0.184
64,510.962,3.85098,129.12353000000002,19.55,15.077,12.677,64.49,93,4.7,7.854,814.694,0.0,-0.173,0.0,0.1893
65,627.5980000000002,41.0985,129.56916,19.54,15.11,12.72,64.71,93,4.7,20.84,814.682,0.0,-0.197,0.0,0.1865
66,753.579,47.8764,130.01959,19.52,15.082,12.682,64.63,93,4.2,26.59,814.686,0.0,-0.191,0.0,0.1928
67,902.878,133.691,130.47488,19.6,15.061,12.661,64.22,92,3.95,31.32,814.668,0.0,-0.07,0.0,0.1951
68,1015.2,308.371,130.93509,19.78,15.172,12.702,63.68,94,4.95,21.59,814.666,0.0,0.06,0.0,0.1869
69,1287.22,536.841,131.40028999999998,19.84,15.209,12.809,63.89,95,3.95,19.37,814.694,0.0,-0.057,0.0,0.1463
70,844.707,191.873,131.87053999999998,20.04,15.233,12.733,62.79,95,5.2,33.82,814.693,0.0,-0.2,0.0,0.1867
71,533.104,12.4921,132.3459,20.1,15.282,12.782,62.76,94,4.2,28.04,814.7280000000002,0.0,-0.29100000000000004,0.0,0.1887
72,449.592,5.69946,132.82643000000002,20.12,15.296,12.796,62.74,93,3.7,22.56,814.7310000000001,0.0,-0.363,0.0,0.1917
73,405.707,4.77025,133.3122,20.1,15.314,12.814,62.89,93,4.2,22.17,814.762,0.0,-0.266,0.0,0.1945
74,442.23800000000006,19.7717,133.80325,19.92,15.297,12.897,63.94,94,3.45,25.82,814.793,0.0,-0.287,0.0,0.2154
75,527.474,31.6576,134.29966000000002,19.81,15.274,12.874,64.28,94,3.7,21.91,814.79,0.0,-0.19,0.0,0.2092
76,588.771,30.8476,134.80148,19.78,15.21,12.81,64.13,96,3.2,40.31,814.794,0.0,-0.215,0.0,0.1886
77,640.969,61.7996,135.30876999999998,19.74,15.167,12.707,63.86,98,3.7,30.08,814.753,0.0,-0.268,0.0,0.1809
78,527.5740000000002,4.0845199999999995,135.82158,19.74,15.144,12.664,63.68,97,3.45,21.13,814.757,0.0,-0.34,0.0,0.1882
79,485.34,2.16152,136.33997,19.7,15.095999999999998,12.696,63.97,96,4.95,34.27,814.7539999999998,0.0,-0.294,0.0,0.1919
80,467.97,1.7043700000000002,136.864,19.59,15.147,12.767,64.71,97,3.7,17.86,814.7760000000002,0.0,-0.146,0.0,0.1939
81,468.501,1.58015,137.39372,19.5,15.169,12.869000000000002,65.51,98,4.7,23.28,814.7819999999998,0.0,-0.255,0.0,0.1952
82,484.406,1.7789099999999998,137.92918,19.42,15.139,12.849,65.75,99,3.2,30.29,814.7860000000002,0.0,-0.18600000000000005,0.0,0.1949
83,505.516,1.95282,138.47042,19.43,15.167,12.887,65.87,99,4.95,356.6,814.7869999999998,0.0,-0.136,0.0,0.1928
84,512.658,1.97767,139.01751000000002,19.48,15.12,12.82,65.38,99,3.7,14.98,814.783,0.0,-0.26,0.0,0.1911
85,491.685,2.16152,139.57047,19.45,15.21,13.01,66.32,99,4.7,23.86,814.81,0.0,-0.254,0.0,0.1901
86,457.349,2.4994099999999997,140.12936000000002,19.32,15.214,13.024,66.92,99,3.95,26.56,814.834,0.0,-0.281,0.0,0.1901
87,446.275,2.45966,140.69422,19.12,15.099,12.999,67.65,99,4.45,23.82,814.822,0.0,-0.175,0.0,0.1917
88,470.142,2.0522099999999996,141.26509,19.03,14.939,12.739,66.88,99,3.45,30.23,814.797,0.0,-0.145,0.0,0.1937
89,524.686,1.93295,141.842,19.07,14.952,12.752,66.77,99,4.2,39.4,814.752,0.0,-0.112,0.0,0.1952
90,578.006,2.0422700000000003,142.42498999999995,19.2,14.912,12.612,65.63,99,3.45,29.28,814.7360000000001,0.0,-0.044,0.0,0.1958
91,598.816,2.49445,143.01408,19.31,14.968,12.668,65.42,99,2.95,17.93,814.715,0.0,0.02,0.0,0.1969
92,600.078,3.3143300000000004,143.6093,19.49,15.234000000000002,12.964,65.96,99,3.95,34.34,814.677,0.0,-0.063,0.0,0.1992
93,583.48,3.3540699999999997,144.21069,19.64,15.309,13.009,65.54,99,4.7,17.63,814.6669999999998,0.0,-0.199,0.0,0.2001
94,591.693,3.79631,144.81824,19.69,15.361,13.061,65.56,99,4.95,22.07,814.673,0.0,-0.32299999999999995,0.0,0.1997
95,625.317,4.04972,145.43198999999996,19.55,15.27,13.07,66.17,98,4.45,16.6,814.69,0.0,-0.282,0.0,0.20199999999999999
96,660.303,12.1641,146.05195,19.44,15.220999999999998,13.021,66.41,99,4.45,25.03,814.673,0.0,-0.091,0.0,0.2017
97,710.45,101.114,146.67811,19.33,15.162,12.962,66.61,98,4.7,17.91,814.69,0.0,-0.14400000000000002,0.0,0.1833
98,697.133,72.7164,147.3105,19.25,15.156,12.966,66.96,99,3.95,24.99,814.69,0.0,-0.024,0.0,0.1827
99,587.405,5.21745,147.94908999999996,19.51,15.155,12.855,65.41,99,4.2,36.23,814.659,0.0,-0.113,0.0,0.1885
100,590.384,5.07833,148.5939,19.85,15.153,12.653,63.2,99,4.7,38.27,814.6,0.0,-0.111,0.0,0.1916
101,589.526,5.09324,149.2449,19.94,15.288,12.798,63.45,98,5.45,34.52,814.585,0.0,-0.152,0.0,0.1925
102,563.7280000000002,4.03484,149.90208,19.96,15.392,12.992,64.18,99,4.45,32.63,814.581,0.0,-0.212,0.0,0.1925
103,489.531,3.83609,150.56541,19.88,15.302,12.902,64.12,98,4.7,23.87,814.578,0.0,-0.309,0.0,0.1939
104,432.324,2.6981900000000003,151.23487,19.72,15.245,12.855,64.56,98,4.7,17.36,814.581,0.0,-0.326,0.0,0.1946
105,401.981,2.0373,151.91044,19.55,15.253,12.963,65.71,97,4.7,20.9,814.596,0.0,-0.28300000000000003,0.0,0.1966
106,362.858,1.49568,152.59205,19.5,15.22,12.93,65.77,97,4.2,32.37,814.6030000000002,0.0,-0.265,0.0,0.1997
107,355.754,1.02362,153.27966999999995,19.51,15.22,12.93,65.73,97,4.7,34.3,814.5980000000002,0.0,-0.232,0.0,0.204
108,397.878,1.12797,153.97325,19.53,15.226,12.925999999999998,65.63,97,4.45,37.74,814.563,0.0,-0.252,0.0,0.2049
109,605.737,165.125,154.67273,19.52,15.109000000000002,12.809,65.17,95,5.45,48.65,814.5110000000002,0.0,0.034,0.0,0.1964
110,598.715,46.3609,155.37803,19.55,15.13,12.76,64.84,94,4.7,42.45,814.472,0.0,0.027999999999999997,0.0,0.1735
111,1045.84,514.398,156.08909,19.54,15.264,12.984000000000002,65.84,89,4.7,47.08,814.3989999999999,0.0,0.146,0.0,0.2043
112,1115.76,544.372,156.80583,19.66,15.293,12.993,65.39,91,5.2,47.04,814.327,0.0,0.253,0.0,0.1956
113,766.679,250.892,157.52816,20.01,15.368,12.968,63.88,86,5.95,36.07,814.268,0.0,0.091,0.0,0.1862
114,958.093,453.833,158.25598,20.27,15.406,12.826,62.28,83,4.7,12.26,814.3660000000001,0.0,-0.312,0.0,0.1881
115,864.495,257.108,158.98918999999995,20.24,15.269,12.669,61.76,89,4.2,17.36,814.413,0.0,-0.32799999999999996,0.0,0.1777
116,580.418,23.7222,159.72769,20.01,15.205,12.705,62.79,88,4.2,25.68,814.457,0.0,-0.298,0.0,0.1977
117,634.447,63.4097,160.47135,19.82,15.093,12.533,62.82,93,3.45,23.71,814.4860000000001,0.0,-0.259,0.0,0.2114
118,526.442,44.5274,161.22005,19.78,15.15,12.75,63.88,95,3.7,19.05,814.523,0.0,-0.054000000000000006,0.0,0.2026
119,347.8259999999999,6.0821,161.97367,19.87,15.269,12.809,63.77,92,4.2,27.65,814.551,0.0,-0.173,0.0,0.1815
120,258.293,1.84351,162.73205,19.77,15.281,12.880999999999998,64.47,93,3.7,23.14,814.581,0.0,-0.28,0.0,0.1941
121,227.982,1.20748,163.49505,19.59,15.161,12.861,65.11,90,2.95,18.61,814.596,0.0,-0.228,0.0,0.1947
122,209.977,0.7006359999999999,164.26253,19.54,15.102,12.802,65.06,91,3.7,26.58,814.597,0.0,-0.217,0.0,0.19399999999999998
123,190.028,0.114288,165.0343,19.42,15.026,12.726,65.22,92,4.2,26.5,814.605,0.0,-0.304,0.0,0.1901
124,168.676,-0.134164,165.81022,19.24,14.994000000000002,12.694,65.82,93,3.7,20.36,814.648,0.0,-0.129,0.0,0.184
125,137.243,-0.372678,166.5901,19.21,15.012,12.742,66.15,94,3.45,24.28,814.674,0.0,-0.15,0.0,0.1795
126,106.996,-0.5615020000000001,167.37376,19.21,14.984000000000002,12.694,65.94,94,3.95,40.5,814.701,0.0,-0.278,0.0,0.177
127,82.2906,-0.7403890000000001,168.16101,19.17,14.994000000000002,12.734000000000002,66.28,96,1.95,4.558,814.7510000000002,0.0,-0.382,0.0,0.1731
128,61.5014,-0.89443,168.95165,19.05,14.928,12.728,66.75,95,3.45,10.29,814.77,0.0,-0.304,0.0,0.1722
129,46.7702,-0.993808,169.74549,18.95,14.856,12.656,66.85,96,3.2,23.11,814.807,0.0,-0.278,0.0,0.1725
130,37.876,-0.998776,170.54232,18.85,14.817,12.617,67.1,97,2.45,4.381,814.827,0.0,-0.145,0.0,0.16899999999999998
131,34.1964,-1.04847,171.34191,18.86,14.863,12.693,67.39,98,1.7,298.0,814.8380000000002,0.0,-0.266,0.0,0.1647
132,33.8,-1.19256,172.14406,18.85,14.849,12.749,67.68,97,2.2,275.0,814.84,0.0,-0.332,0.3,0.1647
133,35.1444,-1.22238,172.94853999999995,18.75,14.955,12.955,69.03,98,2.7,283.9,814.837,0.0,-0.412,1.0,0.16399999999999998
134,38.4795,-2.27581,173.75512,18.54,15.465,13.865,74.22,96,3.7,295.1,814.823,0.0,-0.469,1.0,0.1557
135,42.4872,-4.0845400000000005,174.56358,18.24,15.542,14.152,77.05,95,4.2,298.4,814.797,0.762,-0.499,1.0,0.1486
136,47.4821,-4.9243,175.37367,17.79,15.552,14.392,80.5,96,4.7,296.6,814.805,1.778,-0.49,1.0,0.1417
137,56.1118,-4.46715,176.18515,17.25,15.319,14.319,82.9,96,4.95,295.7,814.8439999999998,3.556,-0.509,1.0,0.1324
138,67.8911,-3.4982,176.9978,16.72,14.977,14.077,84.4,96,3.95,296.8,814.898,4.572,-0.476,1.0,0.1262
139,74.346,-2.42489,177.81135,16.39,15.106,14.416,88.1,95,2.45,24.27,814.93,4.8260000000000005,-0.376,1.0,0.1132
140,77.704,-1.48077,178.62556999999995,16.25,15.139,14.539,89.6,96,3.45,30.87,814.926,5.08,-0.374,1.0,0.1117
141,76.7994,-0.924243,179.44021,16.09,14.964,14.364,89.5,94,3.2,28.64,814.953,5.08,-0.241,1.0,0.1115
142,73.3601,-0.645977,180.25502,16.02,14.912,14.312,89.6,96,1.7,12.75,814.995,5.334,-0.226,1.0,0.1111
143,74.0647,-0.481998,181.06976,16.01,14.902,14.302,89.6,95,3.45,285.8,815.0260000000002,5.334,-0.294,1.0,0.11800000000000001
144,76.1879,-0.362741,181.88417,15.97,14.911,14.331,90.0,95,2.95,299.8,815.066,5.334,-0.214,1.0,0.1232
145,75.2966,-0.163979,182.69802,15.97,15.06,14.57,91.4,96,2.45,286.8,815.067,5.587999999999999,-0.188,1.0,0.1321
146,74.5804,-0.019876,183.51104,15.96,15.074000000000002,14.594,91.6,96,2.2,291.1,815.07,5.587999999999999,-0.201,1.0,0.1422
147,77.2527,0.109319,184.32299999999998,15.95,15.102,14.702,92.3,96,2.45,294.7,815.069,5.587999999999999,-0.204,1.0,0.1514
148,81.7589,0.238513,185.13366,15.97,15.088,14.688,92.1,96,3.45,301.0,815.06,5.587999999999999,-0.172,1.0,0.1579
149,90.4227,0.28820300000000004,185.94277,15.96,15.067,14.577,91.5,96,3.45,303.2,815.048,5.587999999999999,-0.185,1.0,0.1592
150,102.875,0.327955,186.7501,15.97,15.053,14.553,91.3,96,3.7,304.3,815.0360000000002,5.587999999999999,-0.187,1.0,0.1602
151,115.446,0.511807,187.55542,16.0,15.032,14.532,91.0,96,3.2,298.3,815.0319999999998,5.8420000000000005,-0.168,1.0,0.1614
152,126.163,0.631065,188.3585,16.06,15.125,14.625,91.2,96,2.7,298.9,815.02,5.8420000000000005,-0.16699999999999998,1.0,0.1618
153,135.202,0.71057,189.15911,16.15,15.238,14.748,91.4,96,2.7,293.4,814.992,5.8420000000000005,-0.173,1.0,0.1624
154,142.003,0.780131,189.95702,16.19,15.117,14.617,90.4,96,3.45,286.0,814.953,5.8420000000000005,-0.212,1.0,0.1624
155,150.218,0.690689,190.75204,16.21,15.099,14.499,89.6,94,3.95,297.6,814.904,5.8420000000000005,-0.201,1.0,0.1617
156,155.845,0.516775,191.54394,16.23,15.005999999999998,14.345999999999998,88.6,94,4.2,300.2,814.8660000000001,5.8420000000000005,-0.237,1.0,0.1611
157,157.039,0.531684,192.33252,16.23,14.963,14.363,88.7,95,4.95,294.2,814.841,6.096,-0.232,1.0,0.1596
158,155.08700000000005,0.6211270000000001,193.11759,16.23,15.005999999999998,14.345999999999998,88.6,96,4.95,299.1,814.822,6.096,-0.257,1.0,0.1577
159,154.19299999999996,0.665849,193.89895,16.22,15.04,14.44,89.2,96,4.45,298.8,814.842,6.096,-0.239,1.0,0.1554
160,146.088,0.695665,194.67642,16.23,15.174,14.674,90.5,97,4.7,301.8,814.873,6.096,-0.21600000000000005,1.0,0.1525
161,135.033,0.695666,195.44981,16.25,15.337,14.847,91.4,96,4.2,306.7,814.934,6.096,-0.21899999999999994,1.0,0.1501
162,120.779,0.715542,196.21897,16.27,15.299,14.799,91.0,97,4.2,296.2,814.9810000000001,6.096,-0.265,1.0,0.1496
163,92.6761,0.501872,196.98372,16.25,15.245,14.745,90.8,96,4.2,296.0,815.0269999999998,6.096,-0.257,1.0,0.1528
164,68.708,0.32298699999999997,197.7439,16.22,15.198,14.698,90.7,96,3.95,312.9,815.056,6.096,-0.24,1.0,0.1588
165,59.916000000000004,0.27329699999999996,198.49937,16.21,15.163,14.603,90.2,96,4.2,302.5,815.055,6.096,-0.262,1.0,0.1617
166,59.2068,0.109319,199.24998,16.14,15.094,14.534,90.2,96,3.7,296.6,815.0419999999998,6.096,-0.263,1.0,0.1607
167,62.0329,0.2087,199.99561,16.08,14.970999999999998,14.371,89.6,96,3.7,284.1,815.008,6.096,-0.276,1.0,0.1585
168,64.0704,0.2087,200.73611,16.03,14.674,13.974,87.6,96,3.7,276.0,814.9730000000002,6.096,-0.299,1.0,0.1572
169,63.5247,0.268328,201.47138,16.01,14.619000000000002,13.919,87.4,96,3.2,282.9,814.938,6.096,-0.295,1.0,0.1571
170,62.2558,0.293173,202.20129,16.01,14.707,14.007,87.9,96,2.2,263.0,814.931,6.096,-0.295,1.0,0.1582
171,61.566,0.298142,202.92575,16.01,14.757,14.077,88.3,96,2.45,274.5,814.916,6.096,-0.3,1.0,0.1607
172,61.7176,0.327955,203.64466,16.01,14.806,14.146,88.7,97,2.2,265.3,814.905,6.096,-0.248,1.0,0.1639
173,62.6176,0.392552,204.35792,16.03,14.809,14.149,88.6,97,1.95,263.3,814.9119999999998,6.096,-0.247,1.0,0.1674
174,64.3867,0.432304,205.06546,16.03,14.761,14.061,88.1,96,1.95,267.0,814.923,6.096,-0.263,1.0,0.16899999999999998
175,66.3602,0.402489,205.76719,16.04,14.648,13.878,87.0,96,1.95,295.7,814.93,6.096,-0.29100000000000004,1.0,0.1693
176,68.1812,0.397522,206.46305,16.05,14.632,13.852,86.8,95,1.95,254.2,814.946,6.096,-0.248,1.0,0.1681
177,69.6403,0.372677,207.15298,16.07,14.511,13.711,85.9,95,1.95,284.7,814.972,6.096,-0.287,1.0,0.1678
