Time [Mins],Global CMP22 (vent/cor) [W/m^2],Direct sNIP [W/m^2],Azimuth Angle [degrees],Tower Dry Bulb Temp [deg C],Tower Wet Bulb Temp [deg C],Tower Dew Point Temp [deg C],Tower RH [%],Total Cloud Cover [%],Peak Wind Speed @ 6ft [m/s],Avg Wind Direction @ 6ft [deg from N],Station Pressure [mBar],Precipitation (Accumulated) [mm],Snow Depth [cm],Moisture,Albedo (CMP11)
0,506.691,840.456,85.92277,18.57,12.484000000000002,8.584,52.18,14,1.45,82.5,816.9060000000002,0.0,0.136,0.0,0.2159
1,509.527,841.034,86.07435,18.69,12.571,8.601,51.85,14,1.95,96.1,816.903,0.0,0.14400000000000002,0.0,0.2152
2,513.075,842.819,86.22618,18.83,12.656,8.756,51.94,13,1.45,84.1,816.908,0.0,0.066,0.0,0.215
3,516.354,844.23,86.37827,19.03,13.446,10.046,55.95,14,1.7,77.83,816.928,0.0,0.224,0.0,0.215
4,519.734,845.319,86.53062,19.19,13.453,9.963,55.09,14,2.2,92.7,816.925,0.0,0.225,0.0,0.2148
5,522.726,846.437,86.68323000000002,19.29,13.446,9.876,54.43,14,2.45,75.08,816.929,0.0,0.115,0.0,0.2143
6,525.866,847.5269999999998,86.83610999999998,19.29,13.425999999999998,9.926,54.61,15,2.2,75.08,816.931,0.0,0.040999999999999995,0.0,0.2139
7,528.696,847.954,86.98926,19.34,13.718,10.348,56.0,15,2.7,80.2,816.926,0.0,0.17,0.0,0.2138
8,531.873,849.076,87.1427,19.45,13.681,10.281,55.37,14,2.7,74.58,816.928,0.0,0.083,0.0,0.2133
9,535.326,850.87,87.29642,19.53,13.591,10.091,54.4,15,2.7,65.08,816.931,0.0,0.102,0.0,0.2124
10,538.7280000000002,852.079,87.45042,19.37,13.823,10.533,56.59,16,1.95,48.62,816.939,0.0,0.09,0.0,0.212
11,542.086,853.4680000000002,87.60473,19.25,13.874,10.694,57.63,15,2.45,40.8,816.921,0.0,0.04,0.0,0.2123
12,545.433,853.962,87.75934000000002,19.21,13.765,10.565,57.28,15,2.7,50.1,816.923,0.0,0.18899999999999995,0.0,0.2114
13,548.757,854.35,87.91425,19.15,13.456,9.996,55.35,17,2.95,64.63,816.92,0.0,0.248,0.0,0.2103
14,552.399,855.4960000000002,88.06947,19.09,13.389,9.989,55.53,17,2.95,48.81,816.91,0.0,0.205,0.0,0.2101
15,555.5319999999998,856.252,88.22502,18.92,13.285,9.825,55.51,15,2.95,50.84,816.918,0.0,0.305,0.0,0.2097
16,559.297,858.058,88.38088,18.8,13.364,10.064,56.83,15,2.95,47.43,816.9119999999998,0.0,0.234,0.0,0.2096
17,562.634,859.221,88.53708,18.73,13.441,10.241,57.76,16,2.7,46.84,816.92,0.0,0.337,0.0,0.2093
18,565.6569999999998,860.482,88.69360999999998,18.69,12.762,8.972000000000003,53.17,16,3.2,56.24,816.936,0.0,0.14400000000000002,0.0,0.2084
19,568.27,861.191,88.85049000000002,18.57,13.007,9.607,55.91,16,3.2,56.41,816.933,0.0,0.362,0.0,0.2082
20,571.327,863.069,89.0077,18.56,12.963,9.563,55.78,16,2.45,39.53,816.941,0.0,0.226,0.0,0.20800000000000002
21,574.572,864.502,89.16528000000002,18.56,12.986,9.496,55.53,19,3.2,49.73,816.938,0.0,0.32899999999999996,0.0,0.2077
22,577.854,866.301,89.32321,18.56,13.211,9.921,57.14,19,2.45,45.51,816.939,0.0,0.374,0.0,0.2072
23,581.315,868.095,89.48151,18.6,12.841,9.241,54.45,19,2.45,60.15,816.938,0.0,0.362,0.0,0.2069
24,584.716,869.727,89.64017,18.69,13.111,9.641,55.62,20,2.95,36.35,816.93,0.0,0.29,0.0,0.2067
25,587.936,870.8610000000001,89.79921999999998,18.72,12.761,8.961,53.03,20,2.45,17.82,816.928,0.0,0.154,0.0,0.2067
26,591.012,872.1210000000002,89.95865,18.6,12.575,8.775,52.76,21,1.95,23.37,816.92,0.0,0.187,0.0,0.2061
27,594.197,873.709,90.11847,18.48,12.720999999999998,9.051,54.16,21,2.45,41.43,816.919,0.0,0.249,0.0,0.2053
28,597.644,875.174,90.27869,18.45,12.817,9.257,55.02,23,1.95,21.2,816.927,0.0,0.214,0.0,0.2049
29,600.74,875.6080000000002,90.43931,18.39,12.525,8.725,53.28,22,1.95,18.49,816.916,0.0,0.197,0.0,0.2044
30,604.289,877.294,90.60035,18.34,12.608,8.918,54.15,23,2.2,36.91,816.913,0.0,0.45,0.0,0.2037
31,607.601,879.0139999999999,90.7618,18.39,12.94,9.54,56.29,22,2.2,66.62,816.924,0.0,0.454,0.0,0.2032
32,610.966,880.595,90.92367,18.54,12.661,8.961,53.63,22,1.95,46.26,816.922,0.0,0.405,0.0,0.2027
33,614.302,882.159,91.08598,18.64,13.098,9.698,56.01,23,3.2,66.66,816.915,0.0,0.42,0.0,0.2026
34,617.71,883.466,91.24872,18.79,12.579,8.579,51.45,23,2.7,68.47,816.928,0.0,0.22,0.0,0.2018
35,620.735,884.6410000000002,91.41191,18.84,12.788,8.988,52.73,22,2.45,73.58,816.927,0.0,0.349,0.0,0.2019
36,624.321,887.008,91.57554,18.9,12.937,9.167,53.17,20,2.7,24.44,816.924,0.0,0.195,0.0,0.2018
37,627.755,888.398,91.73964,18.9,13.01,9.41,54.05,21,2.45,24.77,816.939,0.0,0.237,0.0,0.2017
38,631.15,889.507,91.90421,18.91,13.28,9.88,55.75,23,2.45,51.06,816.962,0.0,0.442,0.0,0.2014
39,633.531,889.5210000000002,92.06925,18.99,13.44,10.07,56.18,22,2.45,59.76,816.971,0.0,0.486,0.0,0.2012
40,636.304,890.2819999999998,92.23477,19.08,13.036,9.336,53.18,22,2.95,70.78,816.971,0.0,0.34700000000000003,0.0,0.2004
41,638.97,891.035,92.40078,19.09,13.123,9.423,53.46,22,2.95,61.28,816.9760000000001,0.0,0.361,0.0,0.2001
42,642.219,892.8789999999998,92.56728,19.02,13.233,9.653,54.53,21,3.2,46.54,816.9760000000001,0.0,0.417,0.0,0.2002
43,645.366,893.7189999999998,92.73429,18.93,12.908,9.108,52.86,20,2.95,56.12,816.9810000000001,0.0,0.273,0.0,0.1999
44,648.711,894.018,92.90181,18.86,12.589,8.589,51.26,19,2.2,13.12,816.9789999999998,0.0,0.2,0.0,0.1996
45,652.1030000000002,894.6389999999999,93.06986,18.75,12.586,8.596,51.64,19,2.45,14.15,816.961,0.0,0.214,0.0,0.1992
46,655.015,895.154,93.23843,18.65,12.732,8.952,53.23,17,2.2,13.3,816.949,0.0,0.27399999999999997,0.0,0.1989
47,658.243,896.525,93.40754,18.62,12.476,8.576,51.99,16,2.45,12.74,816.947,0.0,0.316,0.0,0.1984
48,661.314,897.4830000000002,93.57719,18.59,12.935,9.435,55.2,17,2.45,46.48,816.945,0.0,0.514,0.0,0.1978
49,664.025,898.164,93.7474,18.62,12.688,8.988,53.46,18,2.7,27.45,816.946,0.0,0.398,0.0,0.1974
50,666.8689999999998,898.836,93.91817,18.64,12.514,8.613999999999999,52.06,17,2.2,28.44,816.944,0.0,0.301,0.0,0.1972
51,669.225,899.196,94.0895,18.65,12.866,9.266,54.37,17,1.2,27.52,816.941,0.0,0.473,0.0,0.19699999999999998
52,672.18,900.529,94.26142,18.78,12.703,8.802999999999997,52.27,17,1.95,35.32,816.928,0.0,0.456,0.0,0.1965
53,674.6010000000001,900.927,94.43393,18.85,12.769,8.969,52.63,15,1.7,42.81,816.921,0.0,0.445,0.0,0.1961
54,677.5010000000002,901.919,94.60703,18.98,13.178,9.578,54.39,15,3.45,36.55,816.91,0.0,0.484,0.0,0.1959
55,680.926,903.274,94.78074,19.04,13.005,9.305,53.2,17,3.45,43.15,816.914,0.0,0.474,0.0,0.1951
56,684.5169999999998,904.223,94.95506,19.03,13.127,9.437,53.71,16,2.45,30.53,816.92,0.0,0.353,0.0,0.1948
57,688.1080000000002,904.691,95.13001,18.99,12.691,8.631,50.99,16,1.7,0.471,816.9169999999998,0.0,0.248,0.0,0.1946
58,690.8560000000001,905.261,95.30559,18.93,13.037,9.347,53.72,17,1.45,34.7,816.908,0.0,0.33899999999999997,0.0,0.1943
59,694.3610000000001,907.319,95.48181,19.01,12.833,8.933,51.98,16,2.2,19.54,816.9010000000002,0.0,0.255,0.0,0.1938
60,697.855,909.207,95.65869,18.94,12.968,9.268,53.4,15,2.7,27.93,816.8889999999999,0.0,0.316,0.0,0.1933
61,701.283,910.553,95.83623,19.01,13.253,9.753,54.93,16,2.95,38.69,816.873,0.0,0.477,0.0,0.1928
62,704.013,910.836,96.01444,19.18,13.257,9.587,53.75,19,1.95,49.49,816.8739999999998,0.0,0.407,0.0,0.1925
63,706.06,910.261,96.19334,19.34,13.252,9.552,53.09,18,2.45,54.82,816.8639999999998,0.0,0.355,0.0,0.1922
64,708.617,910.431,96.37293,19.41,13.245,9.445,52.48,16,1.45,36.5,816.863,0.0,0.14800000000000002,0.0,0.1922
65,711.7660000000002,912.147,96.55322,19.45,13.3,9.6,52.9,16,2.95,48.94,816.847,0.0,0.449,0.0,0.1918
66,714.8789999999998,913.574,96.73423,19.43,13.146,9.246,51.72,17,3.2,25.69,816.826,0.0,0.253,0.0,0.1912
67,717.352,913.821,96.91596,19.37,13.625,10.155,55.18,16,1.95,38.87,816.818,0.0,0.442,0.0,0.191
68,719.7080000000002,913.914,97.09843,19.41,13.209,9.339,52.11,13,2.45,25.7,816.808,0.0,0.386,0.0,0.1907
69,721.943,913.349,97.28164,19.42,13.311,9.541,52.79,14,2.7,49.24,816.8,0.0,0.425,0.0,0.1902
70,724.24,912.814,97.46561,19.44,13.203,9.313,51.92,16,2.45,25.3,816.794,0.0,0.302,0.0,0.1896
71,727.701,913.808,97.65035,19.45,13.279000000000002,9.479,52.47,16,3.7,47.42,816.794,0.0,0.45,0.0,0.1892
72,730.422,914.188,97.83587,19.45,13.185,9.285,51.79,19,2.95,57.61,816.7919999999998,0.0,0.399,0.0,0.1884
73,733.17,915.289,98.02218,19.48,13.149,9.249,51.57,20,1.95,52.7,816.785,0.0,0.3,0.0,0.1884
74,735.9860000000001,916.195,98.20929,19.56,13.18,9.28,51.42,19,1.7,40.48,816.7819999999998,0.0,0.363,0.0,0.1882
75,738.556,916.493,98.39722,19.61,13.167,9.167,50.87,18,2.45,19.72,816.76,0.0,0.364,0.0,0.188
76,741.293,917.223,98.58597,19.62,13.66,10.07,54.02,18,1.95,51.86,816.76,0.0,0.517,0.0,0.1875
77,744.5310000000002,918.85,98.77557,19.7,13.691,10.091,53.83,19,2.2,60.33,816.745,0.0,0.477,0.0,0.187
78,747.938,920.53,98.96602,19.83,13.595,9.895,52.7,19,1.95,46.31,816.7339999999998,0.0,0.4370000000000001,0.0,0.1868
79,750.4860000000001,921.128,99.15733,19.9,13.563,9.763,52.01,18,1.95,43.21,816.715,0.0,0.453,0.0,0.1866
80,752.311,921.416,99.34952,19.97,13.932,10.352,53.87,19,2.2,44.1,816.716,0.0,0.416,0.0,0.1866
81,754.6060000000001,921.759,99.5426,20.18,13.708,9.808,51.27,20,2.2,104.1,816.711,0.0,0.483,0.0,0.1863
82,756.561,922.094,99.73658,20.35,14.12,10.52,53.21,18,2.2,69.05,816.71,0.0,0.473,0.0,0.1863
83,759.74,923.205,99.93148,20.47,13.908,10.008,51.04,18,2.2,64.23,816.706,0.0,0.3779999999999999,0.0,0.1858
84,762.2760000000002,923.051,100.12731,20.49,13.598,9.398,48.93,16,1.95,29.68,816.695,0.0,0.181,0.0,0.1858
85,764.4889999999998,922.819,100.32408,20.43,13.841,9.871,50.7,16,1.95,32.49,816.675,0.0,0.324,0.0,0.1854
86,767.051,922.8,100.52181,20.39,13.799,9.899,50.92,15,1.95,26.4,816.665,0.0,0.25,0.0,0.1851
87,769.945,923.226,100.72052,20.39,13.77,9.87,50.82,14,1.95,21.04,816.6569999999998,0.0,0.241,0.0,0.1845
88,773.0889999999998,923.971,100.92021,20.35,13.882,10.002,51.4,13,2.7,37.44,816.638,0.0,0.312,0.0,0.184
89,775.86,924.267,101.1209,20.28,13.934,10.234,52.43,12,3.2,40.78,816.63,0.0,0.35700000000000004,0.0,0.1833
90,778.189,924.875,101.32261,20.18,13.406,9.306,49.57,11,2.95,45.95,816.622,0.0,0.203,0.0,0.183
91,780.752,925.606,101.52534,20.1,13.899,10.209,52.93,11,2.45,23.13,816.6160000000001,0.0,0.418,0.0,0.1825
92,783.36,926.044,101.72913,20.15,13.944,10.244000000000002,52.89,12,3.45,48.49,816.6080000000002,0.0,0.393,0.0,0.1819
93,785.98,926.55,101.93397,20.19,13.526,9.426,49.94,13,3.2,52.14,816.6110000000001,0.0,0.369,0.0,0.1813
94,788.238,926.156,102.13989,20.1,13.384,9.284,49.74,13,1.7,30.2,816.622,0.0,0.232,0.0,0.1813
95,790.9939999999998,927.041,102.34691,20.1,13.458,9.358,49.99,13,3.45,29.78,816.615,0.0,0.44,0.0,0.1811
96,793.722,927.659,102.55503,20.1,13.246,8.946,48.62,12,2.95,60.56,816.61,0.0,0.373,0.0,0.1802
97,796.375,927.995,102.76428,20.08,13.288,9.088,49.15,10,3.2,50.46,816.617,0.0,0.376,0.0,0.1799
98,799.074,928.983,102.97467,20.12,13.331,9.131,49.17,11,2.45,44.83,816.6060000000001,0.0,0.431,0.0,0.18
99,801.2410000000001,929.487,103.18623,20.1,13.602,9.632,50.92,13,1.7,18.75,816.5989999999998,0.0,0.337,0.0,0.1799
100,803.779,930.516,103.39895,20.14,13.546,9.546,50.5,13,0.7,296.3,816.59,0.0,0.359,0.0,0.1799
101,806.14,931.97,103.61287,20.25,13.679,9.679,50.61,11,1.7,53.3,816.59,0.0,0.52,0.0,0.1797
102,808.5260000000002,933.015,103.82801,20.37,13.763,9.763,50.52,11,1.95,36.02,816.57,0.0,0.32899999999999996,0.0,0.1794
103,811.1160000000001,933.68,104.04437,20.41,13.671,9.571,49.75,13,0.0,0.0,816.557,0.0,0.267,0.0,0.1793
104,813.052,933.681,104.26198,20.55,14.271,10.671,53.09,12,1.95,29.6,816.528,0.0,0.47,0.0,0.1792
105,814.813,933.771,104.48086,20.8,14.109000000000002,10.129,50.42,10,1.95,34.7,816.513,0.0,0.47,0.0,0.1789
106,817.7739999999999,934.361,104.70102,20.92,14.307,10.507,51.33,10,2.7,49.0,816.49,0.0,0.49,0.0,0.1782
107,821.421,935.959,104.92248,20.92,14.147,10.147,50.11,11,2.95,54.6,816.48,0.0,0.481,0.0,0.1776
108,824.926,937.003,105.14527,20.84,13.589,9.089,46.9,11,2.45,27.04,816.4789999999998,0.0,0.245,0.0,0.1775
109,827.597,937.594,105.3694,20.64,13.627,9.327,48.25,12,2.45,25.67,816.472,0.0,0.34,0.0,0.1771
110,829.2760000000002,936.752,105.59489,20.59,13.749,9.589,49.26,12,1.7,11.07,816.472,0.0,0.341,0.0,0.1769
111,830.5110000000002,935.473,105.82177,20.68,13.501,9.031,47.18,12,2.7,33.64,816.4639999999998,0.0,0.405,0.0,0.1766
112,832.664,935.463,106.05006000000002,20.64,13.587,9.287,48.12,13,2.95,27.42,816.446,0.0,0.413,0.0,0.1764
113,834.929,935.675,106.27976,20.6,13.737,9.547,49.09,14,2.95,34.14,816.43,0.0,0.423,0.0,0.1757
114,837.194,935.396,106.51092,20.63,13.52,9.12,47.61,14,2.2,30.36,816.424,0.0,0.409,0.0,0.1756
115,840.2669999999998,935.935,106.74354,20.64,13.63,9.33,48.26,14,1.7,21.37,816.416,0.0,0.568,0.0,0.1753
116,843.3,936.814,106.97765,20.7,13.291,8.691,46.05,14,2.45,17.92,816.4,0.0,0.473,0.0,0.175
117,845.825,937.091,107.21327,20.77,13.65,9.26,47.65,15,1.45,22.48,816.3910000000002,0.0,0.384,0.0,0.1749
118,848.613,938.302,107.45043,20.93,13.912,9.712,48.64,16,1.7,19.69,816.382,0.0,0.379,0.0,0.1748
119,851.1510000000002,939.112,107.68914,21.05,13.864,9.494,47.58,15,2.45,20.53,816.3739999999998,0.0,0.38,0.0,0.1748
120,854.2339999999998,939.987,107.92944,21.05,14.005999999999998,9.806,48.59,16,2.2,24.15,816.365,0.0,0.462,0.0,0.1745
121,856.552,940.183,108.17134,21.09,13.979,9.689,48.09,17,2.45,21.01,816.34,0.0,0.386,0.0,0.1743
122,859.1139999999998,940.67,108.41487,21.14,14.116,9.926,48.71,18,2.95,34.31,816.327,0.0,0.5,0.0,0.1739
123,862.3710000000002,942.133,108.66005,21.16,14.292,10.292,49.86,19,2.95,43.34,816.302,0.0,0.515,0.0,0.1734
124,865.555,943.355,108.90691,21.23,14.206,10.106,49.03,20,2.95,42.82,816.307,0.0,0.354,0.0,0.1731
125,868.618,944.226,109.15547,21.21,14.045,9.845,48.24,21,1.95,36.49,816.307,0.0,0.457,0.0,0.1729
126,871.704,945.464,109.40577,21.25,14.218,10.048,48.78,24,3.2,40.08,816.2919999999998,0.0,0.63,0.0,0.1725
127,874.64,945.903,109.65781,21.23,13.942,9.542,47.21,27,2.7,36.03,816.298,0.0,0.33399999999999996,0.0,0.1719
128,877.453,945.522,109.91164,21.09,13.68,9.11,46.25,29,1.7,19.53,816.31,0.0,0.364,0.0,0.1719
129,880.748,945.939,110.16728,21.05,13.476,8.776,45.33,30,1.95,25.37,816.295,0.0,0.508,0.0,0.1717
130,883.9910000000001,946.202,110.42475,21.04,13.741,9.261,46.87,30,1.7,29.06,816.2819999999998,0.0,0.507,0.0,0.1713
131,887.347,946.446,110.68408,21.04,13.653,9.093,46.34,30,2.2,27.79,816.26,0.0,0.35,0.0,0.1712
132,891.285,946.239,110.94531,21.05,13.566,8.906,45.73,29,1.95,346.1,816.252,0.0,0.29600000000000004,0.0,0.1709
133,895.329,946.697,111.20845,21.14,13.879,9.579,47.59,27,1.7,16.06,816.243,0.0,0.337,0.0,0.1707
134,899.6610000000002,947.315,111.47354,21.29,13.916,9.426,46.67,29,2.2,37.55,816.253,0.0,0.48,0.0,0.1706
135,904.34,948.157,111.74061,21.38,13.912,9.412,46.37,29,2.95,57.34,816.252,0.0,0.564,0.0,0.1698
136,909.793,949.37,112.00969,21.38,13.809,9.209,45.74,27,2.45,41.22,816.263,0.0,0.446,0.0,0.1696
137,916.102,950.696,112.2808,21.32,13.414,8.514,43.8,25,1.45,14.83,816.2689999999999,0.0,0.314,0.0,0.1697
138,922.113,951.256,112.55398,21.22,13.693,9.093,45.83,28,1.95,19.92,816.253,0.0,0.311,0.0,0.1693
139,927.572,951.098,112.82927,21.19,13.84,9.36,46.75,30,1.7,49.54,816.247,0.0,0.555,0.0,0.16899999999999998
140,932.95,950.327,113.10668,21.27,13.82,9.26,46.21,31,1.45,51.34,816.2230000000002,0.0,0.7240000000000001,0.0,0.1688
141,938.94,950.975,113.38626,21.47,14.45,10.35,49.11,31,2.45,27.81,816.203,0.0,0.679,0.0,0.16899999999999998
142,944.418,951.006,113.66803,21.7,13.911,9.141,44.65,30,1.95,0.236,816.192,0.0,0.33899999999999997,0.0,0.1689
143,948.944,951.619,113.95203,21.69,14.399,10.109,47.68,29,2.45,30.23,816.1619999999998,0.0,0.481,0.0,0.1689
144,953.109,952.307,114.23829,21.72,13.919,9.219,44.83,30,2.95,9.85,816.143,0.0,0.302,0.0,0.1685
145,956.583,952.61,114.52685,21.62,13.749,8.869,44.05,32,2.95,23.14,816.117,0.0,0.455,0.0,0.1681
146,959.072,952.576,114.81775,21.6,13.88,9.18,45.04,33,2.95,15.04,816.107,0.0,0.381,0.0,0.1678
147,961.211,952.715,115.111,21.62,13.739,8.939,44.26,32,4.2,19.21,816.09,0.0,0.403,0.0,0.1676
148,963.328,952.573,115.40666,21.61,13.703,8.902999999999997,44.18,29,2.95,63.12,816.097,0.0,0.494,0.0,0.1671
149,965.406,952.757,115.70476,21.62,14.314,10.014,47.58,31,2.2,34.98,816.097,0.0,0.679,0.0,0.1674
150,967.63,953.215,116.00534,21.81,14.598,10.498,48.58,32,2.7,61.17,816.0880000000002,0.0,0.7759999999999999,0.0,0.1676
151,970.95,954.404,116.30842,21.99,13.993,9.193,44.02,33,2.45,51.5,816.08,0.0,0.5870000000000001,0.0,0.1672
152,975.06,955.892,116.61405,22.03,14.049,9.179,43.87,32,2.45,21.4,816.068,0.0,0.489,0.0,0.1674
153,979.564,956.209,116.92227,22.03,13.705,8.605,42.2,31,2.95,32.02,816.061,0.0,0.35200000000000004,0.0,0.1674
154,983.99,956.936,117.23312,21.9,13.837,8.857000000000003,43.27,32,2.45,44.48,816.038,0.0,0.532,0.0,0.1669
155,984.652,953.253,117.54663,21.86,13.847,8.947000000000003,43.64,33,2.45,14.49,816.023,0.0,0.453,0.0,0.1667
156,988.179,955.287,117.86285,21.85,14.011,9.241,44.54,33,1.95,42.49,816.012,0.0,0.524,0.0,0.1669
157,992.811,956.7,118.18182,22.02,14.519,10.119,46.76,34,2.95,51.42,815.9960000000002,0.0,0.542,0.0,0.1667
158,996.31,958.037,118.50356,22.21,14.03,9.13,43.25,34,1.7,33.79,816.0039999999998,0.0,0.522,0.0,0.1667
159,998.181,957.563,118.82814,22.35,13.827,8.527000000000001,41.17,33,1.7,321.9,815.975,0.0,0.349,0.0,0.1666
160,1000.68,957.71,119.15558,22.4,13.732,8.272,40.34,34,0.7,310.8,815.971,0.0,0.2,0.0,0.1664
161,1003.18,957.696,119.48594,22.41,14.108,9.048,42.49,36,2.7,16.23,815.952,0.0,0.35200000000000004,0.0,0.1662
162,1005.32,957.06,119.81925,22.41,13.908,8.628,41.3,34,2.7,16.16,815.937,0.0,0.284,0.0,0.166
163,1007.97,956.662,120.15556,22.29,14.005999999999998,9.006,42.68,35,1.45,1.217,815.93,0.0,0.301,0.0,0.1658
164,1011.49,957.328,120.49491,22.3,14.529000000000002,9.959,45.48,36,2.45,41.5,815.9019999999998,0.0,0.544,0.0,0.1654
165,1015.49,957.994,120.83735,22.41,14.241,9.341,43.34,35,3.45,62.78,815.904,0.0,0.602,0.0,0.1648
166,1018.77,958.223,121.18291,22.45,14.23,9.26,43.0,35,2.45,55.42,815.913,0.0,0.682,0.0,0.1649
167,1022.61,958.673,121.53165,22.45,13.91,8.61,41.15,36,2.7,57.55,815.916,0.0,0.459,0.0,0.1649
168,1025.81,958.577,121.88362,22.42,14.193,9.213,42.94,39,2.2,65.36,815.93,0.0,0.63,0.0,0.1647
169,1029.66,959.105,122.23885,22.49,14.352,9.472,43.51,39,2.45,49.0,815.922,0.0,0.716,0.0,0.1649
170,1033.1,959.552,122.5974,22.56,13.737,8.157,39.64,41,2.2,3.933,815.942,0.0,0.231,0.0,0.1649
171,1036.22,958.981,122.95931000000002,22.48,13.854,8.464,40.67,43,1.2,359.7,815.929,0.0,0.395,0.0,0.165
172,1039.99,958.466,123.32463,22.55,14.057,8.857000000000003,41.59,42,1.95,31.17,815.937,0.0,0.629,0.0,0.165
173,1044.44,958.409,123.69341,22.61,14.018,8.818,41.33,43,2.2,54.31,815.935,0.0,0.713,0.0,0.1645
174,1048.75,958.81,124.06569,22.66,13.954,8.654,40.75,46,1.7,75.74,815.951,0.0,0.422,0.0,0.1645
175,1053.97,959.85,124.44153,22.86,14.414,9.354,42.21,46,1.45,14.53,815.959,0.0,0.377,0.0,0.1648
176,1059.55,960.014,124.82098,22.97,14.068,8.668,40.03,47,1.7,30.49,815.955,0.0,0.49,0.0,0.1649
177,1065.8,959.683,125.20408,22.99,14.681,9.881,43.39,49,2.95,51.19,815.926,0.0,0.688,0.0,0.1647
178,1073.56,959.258,125.59088,23.1,14.75,9.86,43.04,50,2.7,42.62,815.921,0.0,0.6779999999999999,0.0,0.1643
179,1083.92,959.58,125.98144,23.15,14.809,10.009,43.34,54,2.45,37.29,815.8910000000002,0.0,0.501,0.0,0.1646
180,1096.49,960.448,126.37581000000002,23.24,14.927,10.227,43.74,54,4.45,40.14,815.8489999999998,0.0,0.653,0.0,0.1645
181,1108.96,960.367,126.77403,23.28,14.380999999999998,8.981,40.13,55,3.2,21.23,815.868,0.0,0.395,0.0,0.1645
182,1118.64,960.163,127.17616,23.18,13.904000000000002,8.104,38.04,56,2.95,24.54,815.846,0.0,0.4320000000000001,0.0,0.1643
183,1125.57,960.804,127.58225,23.05,14.349,9.079,40.96,57,3.7,26.0,815.812,0.0,0.477,0.0,0.1641
184,1079.22,913.996,127.99235,22.91,14.258,9.058,41.25,59,3.45,21.74,815.819,0.0,0.398,0.0,0.168
185,1128.6,956.909,128.40651,22.79,14.653,9.953,44.13,61,3.45,22.02,815.814,0.0,0.622,0.0,0.1641
186,1130.36,957.283,128.82478999999998,22.9,14.013,8.513,39.78,62,3.45,17.86,815.831,0.0,0.468,0.0,0.16399999999999998
187,1132.05,956.75,129.24723,22.7,13.982,8.682,40.73,62,3.2,20.98,815.802,0.0,0.617,0.0,0.1636
188,1136.05,957.468,129.67389,22.7,14.594,9.824,43.99,63,3.95,43.31,815.79,0.0,0.799,0.0,0.1636
