Time [Mins],Global CMP22 (vent/cor) [W/m^2],Direct sNIP [W/m^2],Azimuth Angle [degrees],Tower Dry Bulb Temp [deg C],Tower Wet Bulb Temp [deg C],Tower Dew Point Temp [deg C],Tower RH [%],Total Cloud Cover [%],Peak Wind Speed @ 6ft [m/s],Avg Wind Direction @ 6ft [deg from N],Station Pressure [mBar],Precipitation (Accumulated) [mm],Snow Depth [cm],Moisture,Albedo (CMP11)
0,66.3352,0.41237,91.85569,-0.34,-0.362,-0.462,99.0,94,0.7,16.39,819.574,0.254,4.748,1.0,0.8363
1,68.6563,0.397466,92.01788,-0.309,-0.331,-0.431,99.0,94,0.95,24.82,819.547,0.254,4.636,1.0,0.8413
2,71.7509,0.382561,92.1803,-0.3,-0.322,-0.422,99.0,95,0.7,12.99,819.5269999999998,0.254,4.629,1.0,0.8411
3,75.7591,0.372625,92.34297,-0.275,-0.297,-0.397,99.0,94,0.0,0.0,819.51,0.254,4.7139999999999995,1.0,0.8382
4,80.0789,0.32791,92.50588,-0.2,-0.222,-0.322,99.0,95,0.0,0.0,819.493,0.254,4.716,1.0,0.8394
5,84.3192,0.298101,92.66905,-0.275,-0.309,-0.409,98.9,95,0.0,0.0,819.395,0.254,4.658,1.0,0.8390000000000001
6,88.3239,0.298102,92.83247,-0.244,-0.278,-0.3779999999999999,98.9,95,0.0,0.0,819.375,0.254,4.746,1.0,0.8386
7,92.1571,0.268291,92.99616,-0.21600000000000005,-0.238,-0.33799999999999997,99.0,95,0.0,0.0,819.3610000000001,0.254,5.01,1.0,0.8383
8,95.7115,0.22854499999999994,93.16011,-0.17800000000000002,-0.2,-0.3,99.0,95,0.0,0.0,819.323,0.254,5.011,1.0,0.8382
9,99.1024,0.233514,93.32433,-0.151,-0.173,-0.273,99.0,96,0.0,0.0,819.291,0.254,4.965,1.0,0.8376
10,102.366,0.163956,93.48883,-0.162,-0.196,-0.29600000000000004,98.9,95,0.0,0.0,819.27,0.254,4.997,1.0,0.8376
11,104.971,0.109304,93.65361,-0.183,-0.217,-0.317,98.9,95,0.0,0.0,819.27,0.254,5.002,1.0,0.8395
12,106.862,0.10433599999999997,93.81868,-0.187,-0.221,-0.321,98.9,95,0.0,0.0,819.2739999999999,0.254,5.053,1.0,0.8398
13,108.386,0.074525,93.98404,-0.188,-0.222,-0.322,98.9,94,0.0,0.0,819.275,0.254,5.033,1.0,0.8379
14,108.715,-0.044715,94.14969,-0.17,-0.204,-0.304,98.9,96,0.0,0.0,819.2739999999999,0.254,5.004,1.0,0.8372
15,107.671,-0.14905,94.31564,-0.17,-0.204,-0.304,98.9,95,0.0,0.0,819.265,0.254,5.0089999999999995,1.0,0.8386
16,108.265,-0.228544,94.4819,-0.141,-0.175,-0.275,98.9,96,0.0,0.0,819.2460000000002,0.254,5.038,1.0,0.8366
17,111.526,-0.208671,94.64847,-0.073,-0.107,-0.207,98.9,96,0.0,0.0,819.2389999999998,0.254,5.047,1.0,0.8366
18,116.14,-0.13911400000000002,94.81535,-0.024,-0.058,-0.158,98.9,96,0.0,0.0,819.215,0.254,5.181,1.0,0.8393
19,120.389,-0.099367,94.98255,0.01,-0.025,-0.125,98.9,96,0.0,0.0,819.2139999999998,0.254,5.038,1.0,0.8439
20,124.615,-0.27326,95.15009,0.025,-0.012,-0.112,98.9,96,0.0,0.0,819.197,0.254,4.8389999999999995,1.0,0.8483
21,128.797,-0.4719930000000001,95.31795,0.031,-0.006999999999999999,-0.107,98.9,95,0.0,0.0,819.17,0.254,4.828,1.0,0.8537
22,132.914,-0.601168,95.48614,0.051,0.011,-0.08900000000000001,98.9,96,0.0,0.0,819.1460000000002,0.254,5.033,1.0,0.8572
23,137.52100000000002,-0.7104699999999999,95.65468,0.18,0.128,0.027999999999999997,98.9,96,0.0,0.0,819.123,0.254,4.863,1.0,0.8569
24,142.602,-0.88933,95.82357,0.253,0.201,0.101,98.9,96,0.0,0.0,819.1189999999998,0.254,4.761,1.0,0.8581
25,148.351,-1.04335,95.99281,0.313,0.275,0.175,99.0,96,0.0,0.0,819.097,0.254,4.513,1.0,0.8557
26,154.971,-1.18246,96.16241,0.4320000000000001,0.393,0.293,99.0,96,0.0,0.0,819.0930000000002,0.254,4.492,1.0,0.8528
27,160.247,-1.3017,96.33236,0.499,0.46,0.36,99.0,96,0.0,0.0,819.092,0.254,2.9160000000000004,1.0,0.8524
28,164.467,-1.52031,96.50269,0.5479999999999999,0.509,0.409,99.0,95,0.0,0.0,819.071,0.254,2.235,1.0,0.8525
29,168.59400000000005,-1.58987,96.67339,0.626,0.5870000000000001,0.487,99.0,96,0.0,0.0,819.07,0.254,2.866,1.0,0.8511
30,172.46,-1.55509,96.84448,0.7190000000000001,0.68,0.58,99.0,96,0.0,0.0,819.069,0.254,3.79,1.0,0.8484
31,175.981,-1.45572,97.01594,0.748,0.7090000000000001,0.609,99.0,97,0.0,0.0,819.071,0.254,3.951,1.0,0.846
32,179.511,-1.34145,97.1878,0.753,0.7,0.6,98.9,96,0.0,0.0,819.074,0.254,4.1560000000000015,1.0,0.8445
33,183.202,-1.32655,97.36005,0.738,0.685,0.585,98.9,96,0.0,0.0,819.076,0.254,4.455,1.0,0.8432
34,187.133,-1.24208,97.53271,0.723,0.6559999999999999,0.556,98.8,97,0.0,0.0,819.077,0.254,4.598,1.0,0.8415
35,191.045,-1.04832,97.70577,0.629,0.5479999999999999,0.4479999999999999,98.7,96,0.0,0.0,819.091,0.254,4.68,1.0,0.84
36,195.096,-0.97876,97.87925,0.5670000000000001,0.472,0.3720000000000001,98.6,97,0.0,0.0,819.091,0.254,5.05,1.0,0.8381
37,199.752,-0.5266430000000001,98.05315,0.5429999999999999,0.449,0.349,98.6,97,0.0,0.0,819.0880000000002,0.254,4.83,1.0,0.8362
38,205.09,-0.044715,98.22747,0.536,0.428,0.32799999999999996,98.5,97,0.0,0.0,819.085,0.254,4.802,1.0,0.8332
39,211.384,0.794936,98.40223,0.591,0.496,0.396,98.6,97,0.0,0.0,819.087,0.254,4.809,1.0,0.8290000000000001
40,218.937,2.15626,98.57742,0.7490000000000001,0.6679999999999999,0.568,98.7,97,0.0,0.0,819.087,0.254,4.783,1.0,0.8256
41,227.85,4.1138,98.75306,0.898,0.8170000000000001,0.7170000000000001,98.7,97,0.0,0.0,819.079,0.254,4.713,1.0,0.8203
42,235.612,5.5298,98.92914,1.033,0.966,0.866,98.8,97,0.0,0.0,819.09,0.254,4.873,1.0,0.8178
43,241.65,6.4191199999999995,99.10568,1.168,1.101,1.001,98.8,98,0.0,0.0,819.1010000000001,0.254,4.8469999999999995,1.0,0.8184
44,247.272,6.66752,99.28269,1.265,1.211,1.111,98.9,97,0.0,0.0,819.1239999999998,0.254,4.6739999999999995,1.0,0.8098
45,252.141,7.11468,99.46016,1.354,1.3,1.2,98.9,97,0.0,0.0,819.128,0.254,4.609,1.0,0.8069
46,258.76599999999996,8.12327,99.63811,1.487,1.433,1.3330000000000002,98.9,98,0.0,0.0,819.1289999999998,0.254,4.583,1.0,0.807
47,261.623,5.27641,99.81654,1.535,1.481,1.381,98.9,98,0.0,0.0,819.1389999999999,0.254,4.562,1.0,0.8052
48,267.387,6.578119999999998,99.99545,1.561,1.493,1.393,98.8,98,0.0,0.0,819.166,0.254,4.546,1.0,0.8007
49,271.11400000000003,8.46107,100.17486,1.5659999999999998,1.484,1.384,98.7,98,0.0,0.0,819.175,0.254,4.565,1.0,0.7983
50,266.48900000000003,4.17339,100.35477,1.571,1.489,1.389,98.7,98,0.0,0.0,819.198,0.254,4.5539999999999985,1.0,0.8035
51,263.593,3.03068,100.53519,1.604,1.5219999999999998,1.422,98.7,98,0.0,0.0,819.202,0.254,4.5310000000000015,1.0,0.8113
52,270.73900000000003,4.41186,100.71612,1.631,1.535,1.435,98.6,99,0.0,0.0,819.211,0.254,4.495,1.0,0.8044
53,272.134,9.32553,100.89757,1.6840000000000002,1.574,1.474,98.5,99,0.0,0.0,819.2180000000002,0.254,4.478,1.0,0.7987
54,260.532,7.0202399999999985,101.07955,1.73,1.619,1.519,98.5,99,0.0,0.0,819.238,0.254,4.467,1.0,0.8002
55,246.897,2.20096,101.26206,1.759,1.634,1.534,98.4,98,0.0,0.0,819.243,0.254,4.46,1.0,0.8046
56,238.516,1.04831,101.44512,1.788,1.663,1.5630000000000002,98.4,99,0.0,0.0,819.2439999999998,0.254,4.4289999999999985,1.0,0.8098
57,231.68400000000003,0.804867,101.62872,1.818,1.679,1.579,98.3,98,0.0,0.0,819.238,0.254,4.417,1.0,0.8178
58,228.718,0.725372,101.81288,1.841,1.6880000000000002,1.588,98.2,98,0.0,0.0,819.2130000000002,0.254,4.3610000000000015,1.0,0.8084
59,224.7,0.5514819999999999,101.9976,1.899,1.746,1.646,98.2,97,0.0,0.0,819.211,0.254,4.343,1.0,0.8021
60,220.859,0.481926,102.18289,1.968,1.8,1.7,98.1,97,0.0,0.0,819.209,0.254,4.342,1.0,0.8007
61,217.099,0.317972,102.36875,2.024,1.856,1.756,98.1,98,0.0,0.0,819.2139999999998,0.254,4.294,1.0,0.7992
62,212.522,0.283194,102.5552,2.052,1.956,1.756,97.9,98,0.0,0.0,819.2180000000002,0.254,4.293,1.0,0.7999
63,207.802,0.114272,102.74224,2.051,1.926,1.726,97.7,98,0.0,0.0,819.225,0.254,4.288,1.0,0.8023
64,203.478,0.009937,102.92988,2.051,1.898,1.6980000000000002,97.5,97,0.0,0.0,819.221,0.254,4.288,1.0,0.8071
65,202.028,-0.06458799999999999,103.11812,2.0340000000000003,1.838,1.638,97.2,98,0.0,0.0,819.221,0.254,4.287,1.0,0.8125
66,211.538,-0.08943,103.30697,2.028,1.803,1.6030000000000002,97.0,97,0.0,0.0,819.222,0.254,4.288,1.0,0.7921
67,211.94099999999997,-0.044715,103.49645,2.009,1.755,1.555,96.8,98,0.0,0.0,819.222,0.254,4.458,1.0,0.7905
68,213.292,-0.004968,103.68656,1.978,1.767,1.467,96.4,98,0.0,0.0,819.2280000000002,0.254,4.505,1.0,0.7959
69,214.467,-0.084462,103.8773,1.763,1.391,0.991,94.6,98,0.0,0.0,819.237,0.254,4.419,1.0,0.7892
70,204.376,-0.099366,104.06869,1.5319999999999998,1.179,0.6890000000000001,94.1,98,0.0,0.0,819.255,0.254,4.4719999999999995,1.0,0.7951
71,196.357,-0.124208,104.26072,1.4,1.001,0.601,94.4,97,0.0,0.0,819.26,0.254,4.543,1.0,0.7878
72,191.867,-0.213637,104.45342,1.258,0.843,0.34299999999999997,93.6,98,0.0,0.0,819.273,0.254,4.651,1.0,0.7804
73,186.268,-0.2037,104.64678,1.0759999999999998,0.633,0.133,93.4,98,0.0,0.0,819.289,0.254,4.677,1.0,0.7809
74,182.065,-0.372623,104.84083,0.865,0.381,-0.119,93.0,98,0.0,0.0,819.298,0.254,4.756,1.0,0.7868
75,179.195,-0.571354,105.03555,0.6920000000000001,0.294,-0.206,93.5,98,0.0,0.0,819.326,0.254,4.756,1.0,0.7769
76,166.321,-0.705497,105.23097,0.564,0.146,-0.254,94.0,97,0.0,0.0,819.335,0.254,4.815,1.0,0.7848
77,152.33100000000005,-0.799891,105.42708,0.477,0.096,-0.304,94.2,98,0.0,0.0,819.3489999999998,0.254,4.69,1.0,0.7895
78,135.418,-0.809828,105.62391,0.34700000000000003,0.02,-0.38,94.5,98,0.0,0.0,819.3610000000001,0.254,4.68,1.0,0.7961
79,130.088,-0.934037,105.82145,0.304,0.021,-0.379,94.8,98,0.0,0.0,819.342,0.254,4.69,1.0,0.7885
80,130.687,-1.13277,106.01972,0.268,-0.011,-0.411,94.8,98,0.0,0.0,819.332,0.254,4.663,1.0,0.7912
81,134.477,-1.18245,106.21873,0.213,-0.147,-0.447,94.9,98,0.0,0.0,819.307,0.254,4.686,1.0,0.79
82,140.536,-1.19239,106.41847,0.194,-0.112,-0.412,95.3,98,0.0,0.0,819.303,0.254,4.715,1.0,0.7786
83,141.655,-0.998636,106.61897,0.211,-0.07200000000000001,-0.3720000000000001,95.5,98,0.0,0.0,819.301,0.254,4.711,1.0,0.7711
84,133.566,-0.8297129999999999,106.82023,0.233,-0.04,-0.34,95.6,98,0.0,0.0,819.306,0.254,4.706,1.0,0.7717
85,122.064,-0.78003,107.02226,0.236,-0.037000000000000005,-0.337,95.6,98,0.0,0.0,819.329,0.254,4.706,1.0,0.7686
86,128.838,-0.770093,107.22507,0.236,-0.037000000000000005,-0.337,95.6,98,0.7,57.42,819.345,0.254,4.706,1.0,0.741
87,138.815,-0.6309779999999999,107.42866,0.234,-0.039,-0.33899999999999997,95.6,99,0.95,43.16,819.3660000000001,0.254,4.706,1.0,0.7322
88,152.237,-0.531611,107.63305,0.234,-0.014,-0.314,95.8,98,1.45,24.44,819.378,0.254,4.691,1.0,0.7389
89,168.06,-0.5067699999999999,107.83825,0.247,0.01,-0.29,95.9,98,1.2,32.77,819.385,0.254,4.683,1.0,0.7437
90,156.683,-0.496831,108.04426,0.256,0.018000000000000002,-0.282,95.9,99,1.45,26.87,819.393,0.254,4.6960000000000015,1.0,0.7557
91,144.90200000000004,-0.496829,108.2511,0.256,0.005,-0.295,95.8,98,1.95,23.98,819.3969999999998,0.254,4.686,1.0,0.7440000000000001
92,154.684,-0.531606,108.45877,0.245,-0.004,-0.304,95.8,98,2.2,22.61,819.3989999999999,0.254,4.654,1.0,0.7288
93,162.838,-0.586259,108.66728,0.236,-0.012,-0.312,95.8,99,1.95,25.0,819.4110000000002,0.254,4.655,1.0,0.7406
94,174.472,-0.6111,108.87665,0.22,-0.039,-0.33899999999999997,95.7,98,2.2,25.27,819.409,0.254,4.629,1.0,0.7458
95,174.27599999999995,-0.486892,109.08688,0.18,-0.07400000000000001,-0.374,95.7,98,1.95,24.06,819.416,0.254,4.618,1.0,0.7575
96,185.456,-0.293129,109.29798999999998,0.158,-0.081,-0.381,95.8,98,1.2,29.55,819.436,0.254,4.619,1.0,0.7381
97,197.468,-0.17389000000000002,109.50998,0.187,-0.043,-0.34299999999999997,95.9,98,1.95,19.25,819.452,0.254,4.5969999999999995,1.0,0.7378
98,189.796,-0.114271,109.72286,0.192,-0.051,-0.35100000000000003,95.8,98,2.7,18.17,819.472,0.254,4.6160000000000005,1.0,0.7393
99,181.898,-0.27822399999999997,109.93664,0.134,-0.127,-0.4270000000000001,95.6,99,2.7,18.7,819.4839999999998,0.254,4.6339999999999995,1.0,0.7333
100,200.444,-0.402432,110.15134,0.096,-0.173,-0.473,95.5,98,2.7,24.25,819.512,0.254,4.618,1.0,0.7248
101,202.739,-0.49683,110.36696,0.07400000000000001,-0.193,-0.493,95.5,99,2.45,18.64,819.5210000000002,0.508,4.613,1.0,0.7299
102,185.841,-0.462053,110.58351,0.079,-0.17600000000000002,-0.476,95.6,98,2.45,21.56,819.545,0.508,4.5569999999999995,1.0,0.7346
103,166.422,-0.516702,110.80101,0.117,-0.129,-0.429,95.7,99,2.2,18.08,819.555,0.508,4.438,1.0,0.7307
104,153.245,-0.5763199999999999,111.01946,0.175,-0.078,-0.3779999999999999,95.7,99,2.45,16.72,819.569,0.508,4.395,1.0,0.7324
105,157.75,-0.511734,111.23888,0.147,-0.128,-0.428,95.5,99,2.2,22.47,819.575,0.508,4.4860000000000015,1.0,0.7279
106,171.84,-0.462052,111.45928,0.135,-0.139,-0.439,95.5,99,2.45,20.54,819.5880000000002,0.508,4.359,1.0,0.7337
107,201.939,-0.52664,111.68066,0.13699999999999998,-0.125,-0.425,95.6,99,2.2,19.87,819.5880000000002,0.508,4.333,1.0,0.7151
108,240.509,-0.496829,111.90304,0.18,-0.07400000000000001,-0.374,95.7,99,2.45,19.02,819.5889999999998,0.508,4.348,1.0,0.7176
109,240.332,-0.496829,112.12643,0.215,-0.043,-0.34299999999999997,95.7,99,2.2,26.94,819.5889999999998,0.508,4.315,1.0,0.7311
110,262.849,-0.511733,112.35084,0.231,-0.029,-0.32899999999999996,95.7,99,2.2,18.58,819.605,0.508,4.001,1.0,0.7207
111,260.377,-0.382559,112.57628,0.251,-0.012,-0.312,95.7,99,2.95,20.33,819.6,0.508,3.452,1.0,0.7395
112,264.089,-0.228541,112.80276,0.247,-0.053,-0.353,95.4,100,2.95,20.73,819.6089999999998,0.508,3.302,1.0,0.7406
113,257.49,-0.049683,113.0303,0.227,-0.109,-0.409,95.1,100,3.2,21.9,819.6160000000001,0.508,3.602,1.0,0.7424
114,267.132,-0.099366,113.2589,0.209,-0.13699999999999998,-0.4370000000000001,95.0,99,3.2,18.92,819.635,0.508,4.331,1.0,0.7342
115,273.547,-0.33784400000000003,113.48858,0.201,-0.119,-0.419,95.2,98,2.45,13.53,819.643,0.508,4.8439999999999985,1.0,0.7349
116,288.153,-0.5316069999999999,113.71935,0.231,-0.105,-0.405,95.1,99,3.2,17.24,819.668,0.508,4.7219999999999995,1.0,0.7299
117,299.557,-0.621035,113.95122,0.236,-0.126,-0.426,94.9,99,3.2,17.23,819.679,0.508,4.5760000000000005,1.0,0.7272
118,300.218,-0.655812,114.18421,0.236,-0.114,-0.414,95.0,99,2.7,15.83,819.702,0.508,4.646,1.0,0.7286
119,293.816,-0.695557,114.41831,0.253,-0.061,-0.361,95.3,99,2.95,19.35,819.721,0.508,4.547,1.0,0.7283
120,288.6020000000001,-0.700523,114.65356,0.276,-0.053,-0.353,95.2,99,3.7,20.84,819.74,0.762,4.726,1.0,0.7275
121,282.8640000000001,-0.725364,114.88995,0.275,-0.005,-0.405,94.8,99,3.2,27.02,819.748,0.762,4.747,1.0,0.7284
122,285.738,-0.8992530000000001,115.1275,0.276,-0.001,-0.391,94.9,99,2.95,21.32,819.7669999999998,0.762,4.641,1.0,0.7121
123,309.101,-0.953904,115.36623,0.266,-0.1,-0.4,94.9,99,3.45,20.18,819.778,0.762,4.619,1.0,0.7136
124,320.812,-1.0334,115.60614,0.26,-0.031,-0.431,94.7,99,3.7,21.6,819.7669999999998,0.762,4.725,1.0,0.7153
125,314.738,-1.09302,115.84725,0.257,-0.108,-0.408,94.9,100,3.2,21.94,819.7739999999999,0.762,4.886,1.0,0.7125
126,311.502,-1.16258,116.08957,0.256,-0.109,-0.409,94.9,99,3.7,22.01,819.7739999999999,0.762,5.051,1.0,0.7041
127,304.742,-1.10793,116.33312,0.254,-0.111,-0.411,94.9,99,3.2,19.89,819.78,0.762,5.067,1.0,0.6996
128,292.89,-1.09302,116.5779,0.255,-0.084,-0.384,95.1,99,3.2,21.02,819.783,0.762,5.181,1.0,0.6973
129,278.144,-1.1427,116.82393,0.255,-0.097,-0.397,95.0,99,2.95,19.0,819.796,0.762,5.1560000000000015,1.0,0.6985
130,253.527,-1.20729,117.07123,0.237,-0.126,-0.426,94.9,99,3.2,21.5,819.8,0.762,5.065,1.0,0.7029
131,226.683,-1.32156,117.3198,0.204,-0.116,-0.416,95.2,99,2.7,18.7,819.819,0.762,4.888,1.0,0.7073
132,224.438,-1.38615,117.56965,0.18,-0.13699999999999998,-0.4370000000000001,95.2,99,2.45,13.92,819.84,0.762,4.824,1.0,0.6953
133,234.429,-1.22717,117.82081,0.152,-0.13699999999999998,-0.4370000000000001,95.4,99,2.45,20.24,819.8430000000002,0.762,4.905,1.0,0.6947
134,222.28599999999997,-1.0979999999999999,118.07329,0.156,-0.108,-0.408,95.6,99,2.7,18.65,819.8639999999998,0.762,4.854,1.0,0.7028
135,206.509,-1.1129,118.3271,0.142,-0.107,-0.407,95.7,98,2.2,20.59,819.875,0.762,5.002,1.0,0.7063
136,203.773,-1.24208,118.58225,0.179,-0.05,-0.35,95.9,99,2.2,21.66,819.8910000000002,0.762,4.729,1.0,0.7240000000000001
137,194.883,-1.13774,118.83875,0.212,-0.008,-0.308,96.0,99,2.2,18.78,819.9110000000002,1.016,4.4460000000000015,1.0,0.728
138,204.183,-0.973788,119.09663,0.21600000000000005,-0.005,-0.305,96.0,99,2.7,23.59,819.918,1.016,4.43,1.0,0.7194
139,223.567,-0.8197709999999999,119.35588,0.204,-0.015,-0.315,96.0,99,2.7,18.38,819.925,1.016,4.428,1.0,0.7071
140,237.396,-0.73034,119.61654,0.151,-0.062,-0.362,96.0,99,2.45,15.93,819.927,1.016,4.19,1.0,0.725
141,242.519,-0.8595149999999999,119.87861,0.134,-0.064,-0.364,96.1,99,2.45,17.62,819.941,1.016,3.769,1.0,0.7171
142,240.903,-0.8098310000000001,120.1421,0.136,-0.13699999999999998,-0.337,96.3,99,2.7,17.21,819.947,1.016,2.843,1.0,0.7198
143,228.271,-0.670718,120.40704,0.179,-0.087,-0.287,96.4,100,2.45,17.38,819.953,1.016,3.513,1.0,0.7227
144,220.295,-0.541543,120.67342,0.191,-0.064,-0.264,96.5,99,2.2,13.51,819.955,1.016,4.401,1.0,0.7243
145,217.547,-0.546512,120.94128,0.17600000000000002,-0.077,-0.27699999999999997,96.5,99,2.7,23.35,819.954,1.016,4.669,1.0,0.7461
146,238.601,-0.606133,121.21062,0.197,-0.046,-0.246,96.6,99,2.2,15.25,819.947,1.016,5.155,1.0,0.7328
147,230.866,-0.784991,121.48146,0.208,-0.024,-0.224,96.7,99,2.45,15.85,819.94,1.016,5.007,1.0,0.7368
148,238.552,-1.00856,121.75381000000002,0.182,-0.046,-0.246,96.7,99,2.95,18.59,819.94,1.016,4.853,1.0,0.7240000000000001
149,250.563,-1.10296,122.02769,0.196,-0.034,-0.234,96.7,99,3.7,23.75,819.939,1.016,4.78,1.0,0.7159
150,248.319,-1.09302,122.3031,0.149,-0.08800000000000001,-0.28800000000000003,96.6,99,3.45,20.63,819.92,1.016,4.5760000000000005,1.0,0.7263
151,256.915,-0.824734,122.58008,0.117,-0.104,-0.304,96.7,99,2.7,16.49,819.935,1.016,4.0680000000000005,1.0,0.7275
152,277.066,-0.606132,122.85862,0.114,-0.094,-0.294,96.8,99,3.45,15.66,819.91,1.27,3.028,1.0,0.7232
153,298.728,-0.6061310000000001,123.13875,0.076,-0.152,-0.35200000000000004,96.6,99,3.7,20.57,819.909,1.27,2.387,1.0,0.7103
154,304.232,-0.849576,123.42048,0.040999999999999995,-0.183,-0.3829999999999999,96.6,99,3.2,21.52,819.916,1.27,2.991,1.0,0.7084
155,314.686,-0.814797,123.70383,0.035,-0.17600000000000002,-0.376,96.7,99,2.7,14.51,819.909,1.27,3.182,1.0,0.7032
156,306.06,-0.700529,123.9888,0.061,-0.128,-0.32799999999999996,96.9,99,2.7,17.25,819.9069999999998,1.27,4.4030000000000005,1.0,0.7006
157,307.749,-0.5316069999999999,124.27543,0.123,-0.073,-0.273,96.9,99,3.45,16.83,819.92,1.27,4.743,1.0,0.6953
158,307.323,-0.541543,124.56371,0.157,-0.043,-0.243,96.9,99,2.95,15.33,819.921,1.27,4.743,1.0,0.6978
159,323.694,-0.511734,124.85367,0.155,-0.045,-0.245,96.9,99,2.95,19.11,819.94,1.27,4.743,1.0,0.6975
160,322.5440000000001,-0.5713550000000001,125.14531,0.14,-0.058,-0.258,96.9,99,2.95,21.17,819.952,1.27,5.382999999999999,1.0,0.7038
161,316.596,-0.531609,125.43867,0.17,-0.032,-0.232,96.9,100,2.95,17.79,819.953,1.27,5.376,1.0,0.7035
162,309.132,-0.491863,125.73374,0.19,-0.014,-0.214,96.9,99,2.95,13.9,819.96,1.524,5.316,1.0,0.7061
163,305.757,-0.5018,126.03055,0.224,0.027999999999999997,-0.172,97.0,99,2.95,12.78,819.962,1.524,5.093,1.0,0.7008
164,288.776,-0.49683,126.32912,0.238,0.04,-0.16,97.0,99,3.45,19.95,819.961,1.524,5.05,1.0,0.7135
165,283.628,-0.481924,126.62945,0.235,0.038,-0.162,97.0,99,3.2,14.69,819.952,1.524,5.136,1.0,0.7114
166,306.226,-0.298097,126.93156,0.24,0.042,-0.158,97.0,99,2.95,21.65,819.951,1.524,5.004,1.0,0.7083
167,322.043,-0.099365,127.23547,0.236,0.026,-0.174,96.9,100,2.95,16.62,819.942,1.524,4.9060000000000015,1.0,0.7026
168,327.41,-0.05961900000000001,127.54119,0.234,0.024,-0.17600000000000002,96.9,99,2.95,18.43,819.935,1.524,4.876,1.0,0.7089
169,343.851,0.099365,127.84874,0.234,0.024,-0.17600000000000002,96.9,100,3.2,18.91,819.941,1.778,4.606,1.0,0.7012
170,356.3769999999999,0.243445,128.15813,0.238,0.027999999999999997,-0.172,96.9,99,3.2,18.65,819.955,1.778,4.706,1.0,0.6946
171,366.549,0.332873,128.46938,0.237,0.027000000000000003,-0.173,96.9,100,3.45,19.52,819.95,1.778,4.835,1.0,0.6918
172,382.48,0.40243,128.7825,0.238,0.027999999999999997,-0.172,96.9,100,3.7,21.22,819.945,1.778,4.705,1.0,0.6849
173,392.84,0.511732,129.09751,0.236,0.026,-0.174,96.9,100,2.95,15.54,819.939,1.778,3.88,1.0,0.6788
174,393.019,0.496827,129.41442,0.252,0.053,-0.147,97.0,99,3.2,23.12,819.936,2.032,2.501,1.0,0.6781
175,380.774,0.293128,129.73325,0.257,0.045,-0.155,96.9,99,2.95,18.87,819.947,2.032,3.075,1.0,0.6806
